0,1,2,3,4,5,6,7,8,9,10,11,12,13,14,15,16,17,18,19,20,21,22,23,24,25,26,27,28,29,30,31,32,33,34,35,36,37,38,39,40,41,42,43,44,45,46,47,48,49,50,51,52,53,54,55,56,57,58,59,60,61,62,63,64,65,66,67,68,69,70,71,72,73,74,75,76,77,78,79,80,81,82,83,84,85,86,87,88,89,90,91,92,93,94,95,96,97,98,99,100,101,102,103,104,105,106,107,108,109,110,111,112,113,114,115,116,117,118,119,120,121,122,123,124,125,126,127,128,129,130,131,132,133,134,135,136,137,138,139,140,141,142,143,144,145,146,147,148,149,150,151,152,153,154,155,156,157,158,159,160,161,162,163,164,165,166,167,168,169,170,171,172,173,174,175,176,177,178,179,180,181,182,183,184,185,186,187,188,189,190,191,192,193,194,195,196,197,198,199,200,201,202,203,204,205,206,207,208,209,210,211,212,213,214,215,216
1.1324551995257113,1.1884074254136474,1.1246263316503813,0.8953325455504912,0.5855642963099459,0.2760809683589097,0.0223830734206181,-0.1310207478872916,-0.1852151412549239,-0.1756897801062221,-0.126618212578722,-0.0864777301289669,-0.0745290529972983,-0.0817100833185547,-0.0949505825271858,-0.0704207554585424,-0.0673347264992303,-0.0735162403339345,-0.0673112273350739,-0.0691270740340803,-0.0711477943591736,-0.0704269815399092,-0.0820631089323168,-0.0741117939778209,-0.0743122679899815,-0.0770647138396016,-0.0688897320001907,-0.0670136028363275,-0.0574089123350544,-0.0640506713647763,-0.0749670915861421,-0.0640246513860607,-0.0668089240402581,-0.0699015661592211,-0.0543660135041742,-0.0748938016083246,-0.0853107582179841,-0.0848059526886251,-0.0786285919899386,-0.0726458245036939,-0.0673327039026511,-0.0622921356352006,-0.0667794530840791,-0.0706212540997082,-0.0744993692530382,-0.0642461151039752,-0.0648701031810078,-0.0703750866672311,-0.0646678490496052,-0.067710657914002,-0.0707328344081563,-0.0651745084428564,-0.0562942849672953,-0.0677921545136585,-0.0629035357498726,-0.0610180337026865,-0.063313711217932,-0.0567596733892416,-0.042352318670159,-0.0491976477740303,-0.0502993305059941,-0.0493443336924855,-0.0568579583119686,-0.0546854131616944,-0.0543080455523841,-0.0555530798583425,-0.066851118828636,-0.0617311692936573,-0.0751216081507657,-0.0682804885149476,-0.0625161810697007,-0.0529803830526496,-0.043663848328217,-0.0585012173413482,-0.0674269047782727,-0.061338694441389,-0.0710736321009065,-0.0564947651980544,-0.0616486115828798,-0.0558238090226969,-0.0593904325640011,-0.0584993686912863,-0.0538923678561557,-0.0500291641368401,-0.0454890020174717,-0.0493421200206969,-0.0571636233326904,-0.0606234279575343,-0.0759470773341417,-0.0626874764388514,-0.0690316802570864,-0.073434853960113,-0.071079257851268,-0.0637630657172345,-0.0682801469803595,-0.0747796952179445,-0.086635238305091,-0.086944749084682,-0.0952552176675999,-0.0879150833719198,-0.0767674081581546,-0.0874550620882073,-0.0789259347824717,-0.0945350372023888,-0.0886141411357875,-0.086996013555597,-0.0710629192736451,-0.0763448548623836,-0.0520783169720424,-0.0421105674215816,-0.0311575049167653,-0.0150895476664,-0.0049536349195771,-0.0057726329440738,0.0035770990021976,0.0042138899686835,0.0209855208778409,0.0274496349667211,0.0222411675289566,0.0255226160928321,0.0290161398795961,0.0244498460503713,0.0318447160035621,0.0243363486334399,0.0398179074698571,0.0479229587327606,0.0404610036876077,0.0348229011023088,0.0367962597953341,0.0398243878151505,0.046415363412165,0.0503994960456748,0.0479456769557502,0.0564285814182274,0.0372509163454222,0.0396585631612336,0.0415813508638145,0.0416026265944012,0.0401592001322876,0.033920732425288,0.0290922428285878,0.0353562602461469,0.0414133056745607,0.0364318879200708,0.0358546944906211,0.0307669068673922,0.0215810598804165,0.0225113508821486,0.0274468855475679,0.0263006493153176,0.0203248534665243,0.0259133497091961,0.0130391715949571,0.0049990138320985,0.0149197253579848,0.0176690948452897,0.0202437667839352,0.0150685433233855,0.0126910719251561,0.0160831392255009,0.0173497881526983,0.0003670642085649,-0.0080993500461896,-0.0099046541065388,-0.0033366762537504,-0.0046580246556853,0.0080389877959251,-0.0123958927198881,-0.0203155779279403,-0.0179804168327955,-0.0080789434855228,-0.0056991168562503,0.0019812307776787,0.0028198547904308,-0.0034365963590988,0.004776328120322,-0.0008578984252755,-0.0050699398483299,-0.0039402140047559,-0.0135313190922793,-0.0087854720498262,-0.0088232428570579,0.001816586472891,-0.0025133546351463,-0.0028535381391531,-0.0042691887874084,-0.0054223923546174,-0.0047709620921934,-0.0123043692673437,-0.0149528994293051,-0.0199795632162622,-0.0227262070035836,-0.0359499178496725,-0.0216384723767112,-0.0137971573099399,0.0004086536878221,-0.0026021729657457,0.0053612698020386,-0.009007222647541,0.0030936931771794,-0.0057650006070939,0.003480236841738,0.01223286600122,0.0124225134558926,0.0091374187718117,0.0103846293141028,0.0043264568762976,0.0015836901609807,0.0199716650113006,0.0366798897964819,0.0657186289833331,0.0534416924313926,0.0519516363972584,0.0621532903376578,0.0532954527925108,0.0691471905863343,0.0843327533829298
1.0995399856522527,1.201565252158986,1.1283334462971015,0.8378729127726876,0.4212614074945046,0.0810365082237084,-0.092077555316656,-0.1603299928511222,-0.1865187117871402,-0.1605288590253115,-0.113765772692896,-0.0625346736113386,-0.0471424484797849,-0.0673347454909734,-0.0631045434471338,-0.0596673456596259,-0.0716449111400696,-0.0676961456266307,-0.0614956272257926,-0.0533455545151418,-0.045612083055081,-0.0510270295018685,-0.0650732664255348,-0.0649766856805362,-0.0816813226681097,-0.0784038668408904,-0.072577538726716,-0.0591346789165994,-0.0613356247132683,-0.0627669056543448,-0.0583189733416362,-0.0734728733477411,-0.0631998772285215,-0.0470217406429353,-0.0601535229598627,-0.0491109878687143,-0.0755842659516475,-0.0744223931720075,-0.0779756070550337,-0.0730318149064512,-0.0539223681456921,-0.0637685811047033,-0.0722099387514073,-0.0762792244174894,-0.0631813979429717,-0.0673308724017933,-0.0701490408082833,-0.0583859849208977,-0.067829055655721,-0.0783654271958955,-0.0697323133788913,-0.0767500588211543,-0.078822357183072,-0.0696834986838687,-0.068249597384725,-0.0550215710851814,-0.072414966986047,-0.0530981123606379,-0.0674602417540872,-0.0626383047081765,-0.0794862413413308,-0.0711558346701924,-0.0701168507691348,-0.0614803885229943,-0.0737380138230883,-0.0805665399312903,-0.0866756599397374,-0.0921864990530572,-0.0818155601497582,-0.0651818503528656,-0.0679176089142762,-0.0719504414526426,-0.0790180483611367,-0.0835805951916938,-0.0874675209493064,-0.0772518469080211,-0.0775492964751052,-0.0620356495940832,-0.0857119275131663,-0.0854787638068386,-0.083033949358671,-0.0973399814056465,-0.0897900518111913,-0.0875285019165134,-0.0868094366595462,-0.1026766920107535,-0.1096199572335421,-0.1070521399537855,-0.129152859744407,-0.1097623378760962,-0.1030911888463693,-0.0998585205661908,-0.1024751386787569,-0.1034480106311326,-0.1080193283583525,-0.1232926815364167,-0.1201667190813052,-0.116828212561754,-0.1107498112523529,-0.1220681661912053,-0.1093594633850147,-0.1263830661016538,-0.1228156008185581,-0.1185994671342844,-0.0932545779396303,-0.0813791505404567,-0.0488281719866597,-0.0428363609375804,-0.0502603742338014,-0.0503531191565469,-0.0445587476256229,-0.0292160592443194,-0.0040794729388927,0.0017624953113878,0.0079719175466154,0.0026848231418881,0.0145893337323395,0.0201261422994902,0.0229742641042268,0.0306741042288949,0.0265508779438817,0.0203990054592705,0.0179503630973753,0.0101827497168434,0.0181301790137064,0.0178227463317943,0.0197233411914097,0.0378920481806925,0.0349792838564116,0.0337270382744875,0.0390816478378638,0.0339099620032527,0.0271337156917185,0.0454346977290438,0.0313769165295041,0.04495950382987,0.0176752296228811,0.0306898772733953,0.0242014590180412,0.0182484444535054,0.0284400372092546,0.0353252089426808,0.0280430913399099,0.0291761814456215,0.0166762810881595,0.0112925467115262,0.011802763782982,0.0071130030998711,0.0174954116407104,0.0186225466479698,0.0198627237171446,0.0142818121615336,0.005800976232922,0.0061897029785631,0.0142443806677077,0.0172955783862719,0.0083225036884018,0.0019607621758737,-0.0008798295745125,0.0011258400279861,0.004200776458833,0.0092295485559768,0.0013368189849944,0.004375385610119,0.011113830243807,0.0196191468786117,5.4343784299085744e-05,0.0001887861580962,-0.0063680503069571,-0.0181558596348095,-0.0075285173157722,0.0058146026056008,-0.0014088798685415,-0.00810228410946,-0.0093592403884112,-0.0253686500210824,-0.0054647114920888,0.0061817427504208,0.0089370050565188,0.0053384324157626,-0.0069280891826465,-0.0123344158384309,-0.0170647770920514,0.0030369347509476,-0.0015500378906011,-0.0001930797946212,-0.0037611465336663,-0.0143748999408908,-0.003058500209779,0.0021918891594924,0.000337422947433,0.0136261659751521,0.0147894803164824,0.0033124906008575,-0.0047763861884831,0.0021286732682942,-0.0095960207232779,-0.0042190406888306,-0.0069462049845861,0.0008951281336932,0.0022472287199146,0.0005647464723935,-0.0037570046999637,0.0018824498108176,-0.004345666829577,-0.0012838485696856,0.008846445731807,0.0268124464952351,0.0197094208326711,0.0235674118893243,0.022831952160337,0.0318757586547008,0.0463477716080846,0.0524940078414054,0.060148267877066,0.0669467257896746,0.0652337803669631
1.1218004746750363,1.2624829697437017,1.2485837439998104,1.0230002798860125,0.611143713810246,0.2104909744127741,-0.0674923084666449,-0.16455360838777,-0.154251683529753,-0.1081043379521543,-0.0533482315047403,-0.0450707435172524,-0.0510370690958155,-0.0544458924263128,-0.0614793339780876,-0.0755552526609261,-0.0687185725867637,-0.0739244552709412,-0.0714206575237867,-0.0833235518003571,-0.0719300488973872,-0.0831346206173448,-0.0810171580751879,-0.0886750285772913,-0.079544057385047,-0.0783134153328752,-0.0809809361642493,-0.0791629007736052,-0.0841161761907186,-0.0909932787794124,-0.0837203732845585,-0.0856114073544123,-0.0904369328662725,-0.0783125187357542,-0.0757502897346657,-0.0796967425427129,-0.0811298712261954,-0.0892387871467411,-0.0818994130893688,-0.0722089761254098,-0.0749610898546305,-0.0668880720056378,-0.0704026312860461,-0.0717600170469466,-0.0750681557325944,-0.0879451369839182,-0.083334850979852,-0.0760733386124877,-0.0779930112060152,-0.0615021500017562,-0.0727589857973882,-0.0708427211035429,-0.0835147552098458,-0.0789315341957226,-0.0769832634314404,-0.0692843715238485,-0.0779020388286791,-0.078834813634319,-0.0663647037280061,-0.0736862820350654,-0.0742630333663352,-0.0728872303581308,-0.0707217840576314,-0.0743857540137825,-0.0748061035380992,-0.0666456895679504,-0.068637841814521,-0.0545099924034208,-0.0688232533205847,-0.0721898537980824,-0.0707956687775318,-0.0706015654087573,-0.0717492907406568,-0.0685141035174751,-0.0647914551384571,-0.0798005754354622,-0.0785820772717303,-0.0769892084134509,-0.0761580834236476,-0.0617572885764854,-0.0784928085817496,-0.0852391567369825,-0.0757828356231182,-0.0797109296146356,-0.0727916876743041,-0.0664882477064137,-0.0718831747704695,-0.0838047191670296,-0.0758789716892529,-0.0765503395555526,-0.0803145373619862,-0.0731656456948212,-0.0768421202019912,-0.0824387187177667,-0.0845134598173726,-0.0814449455472492,-0.076760121349176,-0.0703275818775302,-0.0734206361026163,-0.0676200193128804,-0.0635119240152503,-0.070281688033937,-0.0714937606960822,-0.0763193347994773,-0.0651389560655307,-0.0540709103053109,-0.0539471636495545,-0.0496850984449928,-0.0355413075436032,-0.0308825245899742,-0.0206915690929792,-0.0153932459429125,-0.0053044761190055,0.0096579175003272,0.0047386588934994,0.0099222050856927,0.0148742193935309,0.0193575465651281,0.013647337615713,0.0234000933001264,0.0240015149783714,0.0450438926415171,0.0305604037278813,0.0149135619294584,0.0335055833295771,0.0425388835984744,0.0379377000955745,0.0444163829616203,0.0356405662573766,0.0454248549343978,0.0338759238627007,0.037361718925416,0.0272658985372988,0.0386721207405295,0.0302474485129237,0.0304813801125263,0.0241250323877396,0.0324450897343154,0.0220218853666285,0.0282299792835317,0.0198702270880649,0.0203248016020229,0.0091271094901229,0.0174201442815842,0.0018473179755362,0.0229492443897659,0.0146318176111288,0.010231134792323,0.0091378643748657,0.0073913916873656,0.011662197934147,0.0076223860310334,-0.0056976213215008,-0.0049442290255199,-0.0108300597651477,0.0025346930067027,0.0017290684224236,0.0024578505310577,0.0038969979864387,-0.0004261315674264,0.0088622062022582,0.0125716938798476,-0.0029431838975075,0.0027901826397784,-0.0111124759437438,-0.0109233759027453,-0.0119102006809428,-0.0130048570888239,-0.0179271485555312,-0.0116134849608881,-0.0154138999173449,-0.0107489614366878,-0.0125483482593814,-0.0041301252496674,-0.0137907043413645,-0.0065983107006493,-0.0145393327502944,-0.0147099533770672,-0.0122189205501242,-0.019890170151226,-0.0252006877790869,-0.0126972711101926,-0.014560611179711,-0.0136736480135242,-0.0209414333438238,-0.0193910639793254,-0.0209463857871122,-0.0042464693060161,-0.0108758534478439,-0.0138706167061522,-0.0149302297756156,-0.0079486393126717,-0.0101710220852333,-0.004781772628365,-0.0174485539656476,-0.0204656718834803,-0.0154880941779234,-0.0121103858909834,-0.008555818880884,-0.0085878237384872,-0.0126277966523757,-0.017031645211349,-0.0074557612575229,-0.0081509265368179,-0.0079417838996737,-0.021760657521888,-0.0109441761776562,-0.0118175661490087,-0.0040232832941711,0.0094902790588126,0.0405334477168032,0.0486295025197338,0.0510656856651603,0.0653014871425776,0.0665576687365665,0.0679712289741005,0.067889966867108
1.0998775849654678,1.1941489540913386,1.1290443217652235,0.834275104110918,0.4051518947751421,0.0318768240353579,-0.1614453633967106,-0.1965224248140974,-0.1541607061288299,-0.0878395307099348,-0.0894433183951608,-0.0819839555143345,-0.0818721078608982,-0.0732640193347669,-0.07959736222561,-0.0752876878223228,-0.080792880155855,-0.0763490106788876,-0.0812132610529044,-0.0645423227372173,-0.0719355450257427,-0.0806065233837387,-0.0774638531664826,-0.0818058840492346,-0.0702097681461394,-0.0693007788667515,-0.0791018906940517,-0.0736405945526846,-0.0677636527259257,-0.0827432036952516,-0.0947369762611352,-0.0928251973866204,-0.0891604354085088,-0.0766362143249832,-0.0715416785034203,-0.0731598053316742,-0.0650737368122131,-0.0864470845233066,-0.0820910658152589,-0.0818020975165319,-0.0752450665223496,-0.0677316506155868,-0.0707987839968921,-0.071370307226696,-0.0798387390491693,-0.0839810868359378,-0.07028789243062,-0.0720155202556512,-0.0662354868586404,-0.0626130670360778,-0.0645305323870017,-0.0758704580622362,-0.0765577037451728,-0.0667267011484047,-0.0659917577587879,-0.0589740290546915,-0.0664600196197339,-0.0704809622283876,-0.0726177899189174,-0.076984437066215,-0.060212046303801,-0.0640900731637802,-0.0637439434349507,-0.0632002379433397,-0.0522857556616831,-0.0623007066428295,-0.0694315015089615,-0.0626903100601265,-0.0640644901340744,-0.0663281135784795,-0.0508521522418612,-0.0571880704850522,-0.054157892629218,-0.0558991484349699,-0.0619125619712949,-0.0716473433114754,-0.049693601393352,-0.0466469358434218,-0.0444555834471601,-0.0452286843787038,-0.0591565931095373,-0.0686023718084454,-0.069786267132516,-0.0610584321530724,-0.054848137667403,-0.0611260359773958,-0.0682816415116274,-0.0799347235849386,-0.0807266145644607,-0.0807194523875348,-0.0646868058349239,-0.0574657332713561,-0.0649293171275393,-0.0740315987934631,-0.061226498533593,-0.0505753363004851,-0.0637463502277711,-0.0525750103222528,-0.0521751207824959,-0.0565292237530478,-0.060467145919164,-0.0453688536483511,-0.0575077577143155,-0.0458873448395365,-0.0373689447026283,-0.0295831477813699,-0.0238762353531565,-0.0099337330695239,0.0032346428453264,0.0014120516354704,0.0001996936883071,0.005347851186144,0.0323968813003461,0.0307088191351831,0.0381641138767006,0.0274981263690389,0.028498442920746,0.0339125173685226,0.0326617383673377,0.0414629435465226,0.0478501042219724,0.0467618673579367,0.0497336015570877,0.043120547985191,0.0422998868571387,0.0472518434455396,0.03325607830664,0.0455257997447115,0.0482080342573087,0.0443108351812091,0.0372894848423876,0.042993334734073,0.0247385135255381,0.0307763132673282,0.0261308976091783,0.0219072019681793,0.0332385636467675,0.0186011969501688,0.021572327532864,0.0181044321204579,0.0264339918102076,0.0241041685789188,0.0298970939555769,0.0241189808984838,0.0126165818592511,0.0159881356290822,0.00973411343607,0.0046632586099046,0.001504357660309,0.0148153255552199,0.0225397218933353,0.0172838782658236,0.023590164324282,0.0140170417046112,0.0075023815237041,0.005991506272309,0.0173006057218455,-0.0085105278743059,-0.0050513551648221,-0.0162794675639168,-0.0270628004347259,-0.0124065999370938,-0.0067634455368383,0.0003971648645677,-0.0066522783289935,-0.0150602495148118,-0.0166837729983626,-0.015905492548307,-0.0243993804864508,-0.013687842248625,-0.0284783663893169,-0.0275382501674934,-0.01581410850175,-0.015045983096956,-0.0218679405767415,-0.0304136712263217,-0.0123640872972947,-0.0249679083318485,-0.0192207575515646,-0.0247158469266625,-0.0257156511734068,-0.0419057027494829,-0.0330697384711098,-0.0334656877352427,-0.0071198459679898,-0.0040588967027553,-0.001062558424118,-0.005632270556018,-0.0086787310826398,-0.0181086161791692,-0.0050808525177666,-0.0022695490893535,-0.0012798756568863,-0.0017359217319319,-0.0174594593970479,-0.0279904200984416,-0.0286868031845874,-0.0145626825589459,-0.0195998162572594,-0.0076999122316057,-0.0043683798972846,-0.002025223131956,-0.0030507323557862,0.0028068158800199,0.0089119279762265,0.0191060086721155,0.0340755748826832,0.0552149868150627,0.0424476074370187,0.0537411391320361,0.0521932850608741,0.0535559264897053,0.0512296828935081,0.0682097938978658,0.088800202792295,0.1035927511714609,0.083238061574312
1.123914484687919,1.149748678141635,1.009810295650809,0.7151901955479099,0.3613793728301489,0.0674146130643623,-0.108076118633238,-0.1800287615516535,-0.1664688803901521,-0.1352561417145091,-0.0864665886121678,-0.0828662721785182,-0.0726202888273379,-0.0861930144926924,-0.0804888091217981,-0.0763670601432388,-0.0624258400033002,-0.0815249697169646,-0.0934420691652237,-0.0856412212189161,-0.075998715861752,-0.0796262396182556,-0.0781822895966494,-0.0677687581047424,-0.0728282372304525,-0.0671413208874743,-0.0756140730476829,-0.0696702047601334,-0.0856515066044912,-0.0829540814431502,-0.0841296552530458,-0.0871974486975379,-0.0729449503217836,-0.0696928102725838,-0.0703779440678029,-0.0745950610968625,-0.0835703931502144,-0.0933898905651854,-0.0886288347431724,-0.0879516540686522,-0.0859659269436365,-0.0791213109939036,-0.0594015690796899,-0.0720123328807012,-0.0695984673411377,-0.0691748204768834,-0.0701421348894436,-0.0753593156412689,-0.0738726153860366,-0.0721566590632618,-0.082416902600029,-0.0748023487485779,-0.0767258796253378,-0.0703506777503334,-0.0708318635937953,-0.0717869723983831,-0.0720811036570979,-0.0768552004574379,-0.0818442810683407,-0.0820499981226691,-0.0715128983360697,-0.0695701211592422,-0.0771296099769268,-0.0762573802700895,-0.0681450229910918,-0.081468050362027,-0.0680911044403519,-0.0658455556852875,-0.0708507016821742,-0.0769529134073236,-0.0674576979872186,-0.0620205647776341,-0.0616653146459339,-0.0721325791120959,-0.0626444931373292,-0.0566697328951232,-0.0689417244257693,-0.0663785658910268,-0.0815264970339076,-0.0748210582423257,-0.083529674980834,-0.0688667038408279,-0.0646065614269652,-0.0587140237465318,-0.0560827718384699,-0.0741451894247118,-0.0753796411399763,-0.0792430541267906,-0.0720115938596434,-0.0751905692380779,-0.0693119133741544,-0.0741100331164039,-0.0793974226508063,-0.0903292327773724,-0.1017355808540969,-0.1025518895026394,-0.1014408323251192,-0.0982975717868464,-0.1000151047857113,-0.0842790923888356,-0.102112892158582,-0.1114643687541528,-0.1035197056650674,-0.0959476908352538,-0.0902314008538591,-0.0807595206309977,-0.0661872046519081,-0.0611798421018986,-0.0615105188069106,-0.0525724319183056,-0.0232919384547621,-0.0220210166367707,-0.0086540289133102,-0.0155301961662804,-0.000657525895933,-0.0046280911611514,0.0106473442835886,0.0096485231341511,0.0241193914956267,0.0309717567879197,0.0345573704009648,0.0166158334412604,0.0244549789910942,0.0292481527241018,0.0257238613740949,0.027941241721872,0.045011586341506,0.051196532951513,0.0508471142742499,0.028815934090116,0.0211016606877816,0.0247294392038069,0.0263619140202925,0.0305766137668395,0.0345729742366759,0.0251078974149464,0.0163372900858855,0.0110084070654096,0.0185672367229453,0.0314708160116211,0.0428544181538392,0.0427939159782703,0.0423220590937443,0.0268235441836502,0.0308233317573583,0.0242650441675076,0.0334369037198764,0.0250007936181024,0.0238620590839741,0.0223342141214257,0.0170923152048128,0.0024887974838183,0.0069320485868831,0.0154347555287481,0.0301001738635214,0.0276963855944706,0.0119664747828127,0.0090200821452273,0.0110369620000075,0.004719322950646,0.0005934347156816,0.0031410108753406,0.0011547635932379,-0.0069255420892928,0.0025881341981588,-0.0004163039686234,-0.0042404170069627,-0.006069580475106,0.0010061764213565,0.0060982382848329,0.0106325111731333,0.0059070719331265,0.0012603961838333,-0.0149361917619613,-0.0076867651880514,-0.0044547035754027,-0.0024880094485842,-0.0072147787696274,-0.0078598315056787,-0.0089240071452408,-0.0005426880310517,0.0075407053764619,0.0117295879612488,0.018581393652506,0.0277615720889975,0.016332020915094,0.0158290268767239,-0.0043299012310291,-0.000469420211548,-0.0122483158030338,-0.0024023616605532,0.0056716552475216,0.0152969595446006,0.0122055257295131,0.0035551355153205,0.001442782866878,-0.0130749752657465,-0.0102744330418689,0.0083722256703957,0.0107218252100953,2.3970785685976263e-05,-0.0187665905189117,-0.0184249680359634,-0.0105726389337959,0.0068489176283267,0.0125725045646206,0.0224329414336207,0.0473988583274671,0.051986808748803,0.0550863851329425,0.0521294042184664,0.0606789605100322,0.063119464428261,0.0785744959617972,0.0876304123065987,0.0959645599694669,0.0888124907501093
1.1871703950757446,1.2093240061760655,1.062416400918376,0.7275294258476064,0.3501916085450391,0.0691711087023074,-0.0885365083155123,-0.1456210875120685,-0.1617027109551139,-0.1377126819261427,-0.0787461215569534,-0.0684037209699555,-0.0656828618025934,-0.0671744663093515,-0.0765142857365966,-0.0658914950563862,-0.083001826703008,-0.0771049038943108,-0.0740212390695519,-0.0706061893481342,-0.0690185393999567,-0.085710587180502,-0.0803240098945783,-0.0853423597800377,-0.0973519344700465,-0.0795525844156694,-0.0886595893067897,-0.0592244569212004,-0.0653088634178657,-0.0869537663936689,-0.0795901827017587,-0.0823754474524025,-0.0780083097178799,-0.0799494526357687,-0.0698843073273285,-0.0722975589552315,-0.0756756560790339,-0.0686413102667228,-0.0851621437394715,-0.0744688612266186,-0.0665655713547089,-0.0630038727126693,-0.061582847389985,-0.0693748812669744,-0.0804624325528604,-0.0857906181173716,-0.071049343538045,-0.0555423739491995,-0.0634870228278825,-0.0610100018502849,-0.0809745220918785,-0.0751296778662797,-0.0914244291970861,-0.089842879440653,-0.086796242957932,-0.0641277793840505,-0.0684295409543162,-0.0655231640526762,-0.0798522216006099,-0.094236443217385,-0.0858073918797989,-0.0880856906940574,-0.0726956599542497,-0.0638368579801204,-0.0602517483920644,-0.0718774733016553,-0.0842424298391267,-0.0766913289893379,-0.0721157240141894,-0.0691294145329825,-0.0644645027155359,-0.0674598446366864,-0.0762698282098186,-0.0841906397653236,-0.0801569893444664,-0.0687871085320112,-0.075665968265065,-0.0776492457719224,-0.067238140767881,-0.090763201252869,-0.0967047989069652,-0.0960869391182479,-0.0903627402053814,-0.0896872155260992,-0.0834963471493228,-0.0922830604488293,-0.1079249347041266,-0.1066499805844176,-0.106788965091853,-0.1092929609205333,-0.0963235257387551,-0.0946547449958648,-0.1050825562783339,-0.1125837186829886,-0.1213779690791147,-0.1297993092569808,-0.1257558666246642,-0.1131875009408144,-0.1085249435397655,-0.1104081829750758,-0.1121173530907426,-0.1135085197905032,-0.1303580848453106,-0.1223478417820264,-0.1126036850629959,-0.0998165371670698,-0.085646724911026,-0.0842122861962425,-0.063338873184624,-0.0560554903990964,-0.0563350159036369,-0.0292324247237618,-0.0209244855537638,-0.0035378195654566,0.0157937012368719,0.0065549528805912,0.0058945358660448,0.0176554505267597,0.0145086279181013,0.0353557957708791,0.035551477339526,0.0353558198546717,0.0290216598274722,0.0358941558134204,0.0421677476688949,0.0457525014506391,0.0486234950228086,0.0441177220876896,0.0474025991437131,0.0395042099127787,0.0364466741061148,0.0242485328422884,0.0340488066923068,0.0414113801463167,0.0401784195125349,0.0374341905204955,0.0354764037523067,0.0345104665549792,0.0283843322632184,0.0369515820355624,0.0418204918683772,0.0442986589210761,0.042909795691886,0.0488193403372477,0.0445081770407844,0.0221387275189068,0.0276314942938439,0.0204748476682091,0.0389290572127433,0.0356466388685732,0.0339027234501602,0.0290135420580584,0.0137420064275014,0.0067582290573024,0.0148095644272914,0.0158272995363758,0.0299738047510173,0.0233217392089589,0.011318521918338,0.0189008435794733,0.0067383006642949,0.0115147900142497,0.0092847913265857,0.0085196822320929,0.0004420022309508,-0.0028298321399749,-1.4655396810862565e-05,0.0041809281341881,-0.0001649229186398,0.011964999929669,-0.0002647788280106,0.0010638789922885,0.0139067291289808,-0.0014836093872887,-0.0017302617134181,0.0024586360107221,0.0074054248752794,0.0044861516147573,-0.0074922494274986,-0.0020338558114607,-0.0013907528772733,-0.0132971922822902,-0.0120016973325305,0.0015381018520699,0.010087488597049,0.001143337093466,-0.0065988245983457,-0.0170356176722962,-0.0168469510414327,-0.017559236788428,-0.0133267021043904,-0.007146895321186,0.0059757787956942,-0.0070789385251369,-0.0046919713047433,-0.0013530497195181,-0.0069205340513757,-0.0009315509819755,0.0067517204021596,0.0047379290642637,-0.0046868197823183,-0.0082983030839065,-0.0045528758507802,-0.0088979425290413,0.0076526586249758,0.0095491897657864,0.0112938412149709,0.0066847711452978,-0.0006248253481273,0.0046576927056797,-0.0096179752469932,0.0002181008068415,0.0001942226280657,0.0018139311266401,0.009247198386488,-0.0006505059874524,-0.0099180232195689
1.1240166664214153,1.2428345279746231,1.229407088016217,1.031640084364983,0.6584579615616464,0.2449672876941253,-0.0591131711815182,-0.1801330390184585,-0.1739290291997189,-0.1187295732647176,-0.0755453160897277,-0.0566468684247098,-0.0590189529086057,-0.0638162712191444,-0.0613317958440042,-0.0757042462987414,-0.0646571911949238,-0.0653347020109582,-0.0564298757258649,-0.0549989740991803,-0.0807846741200755,-0.0777381912005048,-0.0653122720375802,-0.0680555547051632,-0.0845942178156677,-0.0780710605463372,-0.0782740339185488,-0.0781344436004664,-0.0921774669024894,-0.0874838251287528,-0.0958488815812335,-0.1005214803199879,-0.0968334329226049,-0.0918965919528951,-0.0836534572686595,-0.0793993784962812,-0.0942028687248038,-0.0902873652753427,-0.0933842823378418,-0.0907250840405033,-0.0785979525292017,-0.0770667131329827,-0.0864114898667648,-0.0877702513895305,-0.0916770604590898,-0.0911904084133683,-0.0824432513570303,-0.0730634664909831,-0.0653645608116579,-0.0655282206853872,-0.0785230143462588,-0.0880522409655869,-0.0816442707325707,-0.0666603688265355,-0.0772603968507477,-0.0658411605458026,-0.0720793241472379,-0.0745053476659124,-0.0771408790353351,-0.0744436648398543,-0.0753547191335249,-0.0634688828070674,-0.0837922443154779,-0.064076890405533,-0.0584406362781184,-0.0736724518785757,-0.061615532972415,-0.0608354199546133,-0.0669678759244977,-0.062175617122046,-0.0691929217678002,-0.0550522801851491,-0.0547219939397805,-0.0705359598900774,-0.0784138698485227,-0.0656850994095726,-0.0635928666415308,-0.0520961787603176,-0.0664209375158269,-0.0677272642340667,-0.0765842404684739,-0.0760376481799469,-0.0671798085954825,-0.0626445510360945,-0.0548283205132044,-0.0550027699317163,-0.0731239919187531,-0.0827553128054937,-0.0912699304713358,-0.076016831619834,-0.0813299328601971,-0.0598276415283474,-0.0712460910145772,-0.08393308117658,-0.0766318842968149,-0.078681827570993,-0.0841927633417425,-0.0770793248603013,-0.0825275060402929,-0.0731510812266378,-0.0827232843367394,-0.0827953169144997,-0.0903071629279247,-0.0841782736654514,-0.0803331496405207,-0.0808860762600924,-0.0632220871720903,-0.0790427309354725,-0.0683122698385493,-0.0586957444541458,-0.0764750078859294,-0.0490374250355029,-0.0373266602630544,-0.0259228123073102,5.741851369675183e-05,-0.000801435752842,-0.0144453897640991,-0.0090711402176319,-0.0005686448110279,0.0187814868531204,0.0167572960210188,0.0169384359306447,0.0140602270353913,0.0093876699366134,0.015653937580958,0.0257599021702035,0.0405097368674227,0.0471961412259758,0.0408927783510254,0.0381754699063864,0.0254081947749762,0.0283988066528066,0.0180353841979885,0.0352379088690905,0.0396820250915613,0.033832168802725,0.0391721060820951,0.0293265251257309,0.0222262356832181,0.0285869262517793,0.0222227555380925,0.0361540836504919,0.0434596069664159,0.0478208871559735,0.0291905838651494,0.0243774104128222,0.0215822643312812,0.0133949764157089,0.0294026535027248,0.0306577227972102,0.0322082047608227,0.0221700874675869,0.0138990698820196,0.0038868461276168,0.0165917460452755,0.025426737378357,0.0285968250337416,0.0194857143242304,0.0122143791402016,0.002569333790953,-0.001666666130438,-0.0071158872041028,0.0124738469769748,0.009445476136746,-0.0014425966584555,0.0060473623847503,-0.006792219040973,-0.0189795332800191,-0.0194528021450202,-0.0172909376479424,-0.0179142168165478,-0.0088553877574422,-0.018480472365137,-0.0230541652718538,-0.0197875116478342,-0.0133128834963451,-0.0200404028026257,-0.0167496696519928,-0.0148195654338931,-0.0151521392546235,-0.022947445307699,-0.027076908592697,-0.0299826804966664,-0.0240724175035417,-0.0190393026231997,-0.0029832513993761,-0.0006367295326219,-0.009527281862785,-0.0222747583376049,-0.0228477850513956,-0.0013233616794651,-0.0032989873298623,-0.0099113403740387,-0.0080017820218897,-0.014330492425778,-0.0238706533553951,-0.0338535541054448,-0.0252264275131347,-0.0160030739696984,-0.0086524183655138,-0.0038398717376223,-0.0209115023565572,-0.0188216974715496,-0.0263932377508958,-0.0172185096857712,-0.0102076940387386,-0.010835956510512,0.0032812754624111,-0.0061907762068719,-0.0004702104821743,-0.011901134643176,-0.005420002462499,-0.0076176648237575,0.0049647243103598,0.0065269572331978,0.006596131007043,0.0247744796181259
1.1242353523407276,1.1887726759815245,1.1111040866124051,0.8627916837282993,0.4922299071612574,0.1212295232127707,-0.1126473668189415,-0.179726482785985,-0.1634257477930734,-0.1164435670459792,-0.0770276889014156,-0.0697949080927612,-0.0709435714293317,-0.0627600724086543,-0.0724047796694789,-0.0754304584571479,-0.0700419304528987,-0.0679802757027315,-0.0767949832492369,-0.076922680140931,-0.081745792938815,-0.0702180368756647,-0.0737250277923208,-0.0847545526344723,-0.0786715783346106,-0.0673383919898847,-0.0566664916271832,-0.0709572113085163,-0.064517376846966,-0.0682964656135857,-0.0692462103427498,-0.0678198666144278,-0.0714899712899783,-0.0764887847165296,-0.0665916316730182,-0.0551583709359692,-0.0478194634213866,-0.0723771118231676,-0.0656352614038361,-0.0705832559293567,-0.0724690956668874,-0.0683606732790974,-0.0657736121190087,-0.0662421635140099,-0.0694854214751473,-0.0785026380763805,-0.0656373936264474,-0.0692171153587284,-0.0598519086185935,-0.065354111687872,-0.0539760942024785,-0.0719816960565462,-0.0774015895304703,-0.0712121016543672,-0.0753217660716935,-0.0751079034643712,-0.0643503102821825,-0.0724043051918019,-0.0607710399271009,-0.0668492462308322,-0.0759421333618152,-0.0749279384289253,-0.0696398365261729,-0.0540952352457606,-0.0473058696758453,-0.055283258694244,-0.0605199210934372,-0.0641120065142097,-0.0636627110181258,-0.0697647215245119,-0.0652300676821044,-0.0529732796515516,-0.0491795186152364,-0.0528203619555392,-0.0614956446698279,-0.0528844720003377,-0.0660283376591468,-0.0619067830073116,-0.0480079564308375,-0.0619325872121797,-0.0546461164481819,-0.0695164649705999,-0.0630985974904864,-0.0674887230494273,-0.0576722095767479,-0.0619096003934535,-0.0495049027323799,-0.0524541219453692,-0.058652673919381,-0.0683168720369931,-0.0626863482130798,-0.0720684175958685,-0.0556802290832902,-0.0583364218454046,-0.0516567515400067,-0.0628694080437426,-0.0721113458980837,-0.0662557892825499,-0.0661647989894916,-0.0657288502029073,-0.0537271726850809,-0.0561254710468377,-0.0507558471957272,-0.0742381542002063,-0.0693867096172812,-0.0713789132034442,-0.0522405936481793,-0.0444112729630711,-0.0444125618748265,-0.0471643214030341,-0.0610294193401285,-0.0585594118322401,-0.042828034606904,-0.0388178681152788,-0.0138642107045852,-0.0064102235115008,-0.0085375733019197,-0.0090435723527418,0.0061258280457534,0.015967895144702,0.0211280937318159,0.0330141038023161,0.0363811085253517,0.0235237445066061,0.0316304066466598,0.0261894298777288,0.0366135608306403,0.0376685183511621,0.0446853594769458,0.0523648878645581,0.0339827141526182,0.0375607872769973,0.0282213340722549,0.0341035247053991,0.0341950018115019,0.0445628563213327,0.0315965468215375,0.0345028250367607,0.0253440632478923,0.0221189103500382,0.0217104271284867,0.0090877385100028,0.017788442492736,0.030871106244925,0.0367402671995846,0.0098119948549801,0.0110224360137535,0.0177321666390088,0.0225256629652614,0.0312752466822498,0.0369367266294919,0.0355154392127066,0.0340091058340679,0.0281402217836166,0.0223396185516904,0.006490246277532,0.0168446596369335,0.014627125670645,0.0138264114200127,0.0060926343023438,0.0086363597618065,0.0075470699235067,0.0228295031376798,0.0143182877429278,0.0169063512695171,0.0148202245139042,0.001260931050629,-0.0004286329351038,-0.0047939301903279,-0.0186909187039681,0.0015914048352616,-0.0080903908248532,-0.0112372978295802,0.0016664205133149,-0.0071733448819226,-0.0099859450120178,-0.0102877604851759,-0.0182566860003577,-0.0100428491346299,-0.0020735212430288,-0.0107296070734567,-0.0219329486082155,-0.0253628748456626,-0.023980245676104,-0.0149004333639731,-0.0165778186141729,-0.0006231126526077,-0.0062449108197019,-0.0221193272008423,-0.0280423428549543,-0.029475681252059,-0.0209141096396677,-0.0155492696118676,-0.017169332401644,-0.0073253462612935,-0.0149093869874421,-0.0177572544279398,-0.0193241319518467,-0.0091140777534597,-0.0122339323223339,0.0008135917633486,-0.0111726730893683,-0.0100222180179121,-0.0120156907463253,-0.0113200216168098,-0.029809000199227,-0.0041695952664962,-0.0139086533442365,-0.0074664843593378,-0.0098819391008088,-0.0085609509605488,-0.0158086675441304,-0.0056365425736882,0.0013341596449992,0.0190055117339137,0.0414731615043791,0.0528640413333445
1.07008627285488,1.1331297329167744,1.021524302202957,0.7575637836760816,0.4016891113727622,0.1061738555027133,-0.0729659388384409,-0.1571570419166057,-0.1632402437328109,-0.1306916455514293,-0.0865532138632694,-0.0685724814768758,-0.0682777443658917,-0.0803132311255289,-0.0730717352808826,-0.0747955844213672,-0.0794195212092572,-0.0669799905833676,-0.0536529201897181,-0.0663181111796806,-0.0515413658317136,-0.0743696441920887,-0.0728938584861181,-0.0793106069915169,-0.0670363920690863,-0.0672491357966729,-0.0783326004128036,-0.0833235834318312,-0.0923204396576747,-0.0771352769469692,-0.0637259362333165,-0.0505190073365669,-0.0548099886273801,-0.060957171359034,-0.0668221431385764,-0.0564468015064137,-0.040907898992177,-0.0615703111885177,-0.0679652070209623,-0.0729572228239116,-0.0652509592339146,-0.0614648758295718,-0.0601379319489367,-0.0632092283419419,-0.0684752596860108,-0.0710044303325591,-0.0726687006539271,-0.0705532966351181,-0.0556293446797825,-0.0574620857023885,-0.054749487103557,-0.0610790744348202,-0.0605491987631956,-0.0482143453678641,-0.0502394604238699,-0.0534485356452828,-0.0591915013905048,-0.0621598322571692,-0.0752240301782372,-0.0758091148415636,-0.0679840382517911,-0.0735206391898276,-0.0707577350484553,-0.0619379204707821,-0.0661948035695545,-0.0600486381635944,-0.0701922940295437,-0.0712830382287994,-0.0713123198744592,-0.064155437944272,-0.0613586152784134,-0.0609031728068505,-0.0589648913254621,-0.058098485270629,-0.0591219578062089,-0.050218236339093,-0.0342101718282355,-0.0564051217347073,-0.0446830862610162,-0.0414521811733898,-0.0656320216422204,-0.0631222125396119,-0.0607349020194472,-0.0647851899896827,-0.0554571334727227,-0.0770795387388061,-0.0836954119659556,-0.0794285650259863,-0.0787160504695687,-0.0766501340541914,-0.079250874571837,-0.0881251334748618,-0.0843494417090938,-0.0823334308057077,-0.0948495321772235,-0.0946176109508881,-0.081333739369947,-0.0922933763971887,-0.0807432335929214,-0.0831315715849461,-0.0776469368761541,-0.0755251715917195,-0.0691925341171629,-0.0695534202060656,-0.0703357274971017,-0.0849596189052005,-0.0736261949733114,-0.0581727837119606,-0.0398042676378663,-0.0322834116422411,-0.0228254785285859,-0.0050477640770799,0.0140947435152009,0.0207213434200107,0.0177656400804043,0.0074081496380735,0.0195074283781991,0.0271557514635558,0.033498573889579,0.0430560520563287,0.0416102273467156,0.0252064120757569,0.0244330796996658,0.0344678236226925,0.0353774704448378,0.0420153404716229,0.048638653570101,0.049016942321367,0.0423942283461526,0.0445454633753462,0.0526508316740035,0.0586323761380845,0.0672319570211357,0.0707520024103434,0.0511019359700356,0.0375857449702313,0.0378655592600819,0.0409378266375482,0.0336746108107852,0.0389950764950413,0.0324673646080607,0.0260924154502736,0.0409590532541239,0.0263630851627538,0.0311170619014456,0.0403003679785592,0.0352928405615934,0.0219776780977823,0.034212234094462,0.0295619140313441,0.0268593475584787,0.0229428490955943,0.0214262714972622,0.0242902273895499,0.0245496188746075,0.00757775993351,0.0102395579908564,0.0090637760824143,-0.0057353032415411,0.005197805247776,0.0113039692800238,0.0123700683669829,0.0180537628297839,0.0126482883774404,-0.0042486621088845,-0.001793336059353,-0.0130127489189775,-0.0063982995684594,-0.0026681765066687,0.0052437433492968,0.0044792760988985,1.1511680353998422e-05,0.000189063665854,-0.0258524855539744,-0.006881492467633,-0.0010005946684872,0.0017577340167607,-0.0062238373751727,-0.0177045591941302,-0.0123601039780774,-0.0063392232126192,-0.0206036959834934,-0.0050826438869961,-0.0044032418979766,-0.0089904826105989,-0.0199110695861626,-0.0024219973016648,-0.0049500735206017,-0.015071522885932,-0.0119414259720351,-0.0227444412739805,-0.0062845690103254,0.0054334659277005,-0.0005038245274529,-0.0142441029770879,-0.0073313542483208,-0.0010447767056707,-0.0156700634109747,-0.0160423555629701,-0.0022186890279128,0.0057685219693716,0.0037040234290359,0.0031895255673357,0.0052771783263214,0.0139223235667841,0.0261545037484974,0.0294305541787309,0.0392724788807496,0.0394915118130077,0.0492351161722862,0.0491828312815107,0.0554394338026175,0.0675385286926371,0.0682008326529929,0.0706063874109953,0.0859171411887455,0.0880191341268681
1.0408065412071748,1.165297204632446,1.1561350047049472,0.9320235354415514,0.5128881725421379,0.1391556404212257,-0.0798203013232413,-0.1607848606972351,-0.1745433034446222,-0.1291017372843474,-0.0906052788088172,-0.0769002068968265,-0.0703738987262555,-0.0667399770013441,-0.0751365454692828,-0.0788509416235266,-0.076043528143513,-0.0704600997698951,-0.0722341200980766,-0.0733024140285772,-0.0616222166167364,-0.0741411963527844,-0.0648839324857352,-0.0700454078325061,-0.0756327659535478,-0.0708483027077078,-0.0642667111175167,-0.0663560662592855,-0.0700366515937087,-0.0679842743984341,-0.0742148603913099,-0.0788939005661942,-0.0724005824087563,-0.0701343230073966,-0.058127170458067,-0.0631285157345205,-0.0762779011667007,-0.0863867163935275,-0.0749563635187957,-0.0737515018417972,-0.0580221196425622,-0.062168537274448,-0.0565320498295048,-0.0626637801886275,-0.0713582293710528,-0.0657107331056768,-0.0619663408466494,-0.0630753669022131,-0.0515489545520372,-0.0531805230971836,-0.0570211595509344,-0.0610758645258977,-0.0682053024053402,-0.0671211823014034,-0.058306647793957,-0.074206042736731,-0.0580065070719534,-0.07634443349164,-0.0725881913443345,-0.072477000240795,-0.0671948470030828,-0.0716580456025476,-0.0701036348686579,-0.0630228070104303,-0.0576652492139238,-0.0709000842941339,-0.0714982078041194,-0.075163251499279,-0.0581355084550899,-0.056256662765255,-0.0602110891777699,-0.0659297788979826,-0.0689770800887777,-0.0683060154424131,-0.0711104646314182,-0.0747743472758258,-0.0745831832722693,-0.0644226785634518,-0.0740645719590303,-0.0849132976719985,-0.0930897461277929,-0.1121305123993308,-0.0884501998402464,-0.0898283654464784,-0.0735101855244224,-0.0801881418336003,-0.098996502676203,-0.1080251963823706,-0.1250920525263218,-0.1088244242852212,-0.0997650719368779,-0.0955878168646033,-0.1096558366363966,-0.1184723941648792,-0.1199884890615156,-0.1246027866418565,-0.1036153451618832,-0.0975066842724787,-0.0910581722629925,-0.0847528537902504,-0.0752046047366521,-0.0685379616619858,-0.063352679862466,-0.0459660517784357,-0.0285166502124867,-0.0222323185079468,-0.0122981634288253,-0.0136738883707771,-0.0063316347201323,0.000460889250698,0.0135635185922417,0.0248473213290445,0.0341252274125117,0.0283387693127249,0.0335267110854859,0.0333867620094818,0.0311583852303937,0.0275319139527054,0.0358513751170256,0.0487630042200315,0.0496616585200414,0.0431403916875976,0.0348288866588338,0.0311958909728726,0.0392019980267663,0.0353373702649946,0.0392829677086167,0.0434262045645522,0.0443010626558804,0.0303633828719843,0.028822294932769,0.0294805970903009,0.0409791398890709,0.0474467138644559,0.0487059058281562,0.0393192933444731,0.0332465665055399,0.0300081063279589,0.0310900059295503,0.0245144539186199,0.0372519565882047,0.0177634589665388,0.031488072028422,0.0295405252861922,0.0225304860305546,0.0307238519980276,0.0248323019610257,0.0158916960385651,0.0339339651089887,0.0269901729972392,0.017108980219245,0.0180500048995975,0.0171447381124061,0.0090225563447159,0.0117184042702989,0.0185226787633373,0.018802464047151,0.0126111591634545,0.0002168486901059,0.0023261469172443,-0.0095752046315244,0.0011344565008128,0.0096167861147614,0.0036037105538391,0.004614082991421,0.0009052332518344,-0.0004116234813296,-0.0094862923821655,-0.0026884263954995,0.0089054296376262,0.0148911556841696,0.0049191858202607,0.0084375389645966,0.0054800355268524,-0.0024737386020919,-0.0130776896472932,-0.0101998921603755,0.0043997847729324,0.0018754370633563,-0.0005380622791148,-0.0066880900296591,-0.0068964876772392,-0.011735663718318,-0.0110519015088656,-0.0044938715996003,-0.0027467084658724,-0.0126087754132872,-0.0052931609431009,-0.0145819562112858,-0.0121303818634596,0.0047295751940602,9.990861887907252e-05,-0.005412649361383,-0.006141942283069,-0.0072716402068203,0.0008793594527568,-0.0059027266637676,-0.0058707491614966,0.0018308079129851,0.0005351172655061,0.0068424956027885,-0.0063185565777373,-0.0071764024718442,-0.010992803103991,-0.0141115754305966,0.0023703077129025,0.0130020048478238,0.0225669462019728,0.0358990142794946,0.0383899203411525,0.0464181761908766,0.056670132366164,0.0695339246945182,0.068130226369938,0.0793794235131685,0.0716210693081742,0.0764844536068846
1.1648492561674209,1.2384534754809409,1.1322232991176804,0.8070679586579458,0.3435225637107833,-0.0290873492264617,-0.1825593086594057,-0.1784550406406686,-0.1115101667456047,-0.0744335845521562,-0.0596450724949054,-0.0716171469562418,-0.0726450117335846,-0.0810894845549373,-0.0784563638523146,-0.077918024706249,-0.0807426533774375,-0.074493753505532,-0.0801839698938499,-0.0814303685785422,-0.0863329586192369,-0.0898405626406334,-0.0889020177381264,-0.0901775702878018,-0.0928424133348557,-0.0840671602889233,-0.0769484385017573,-0.0778908529758074,-0.0757121681721275,-0.0629911902690143,-0.0731825304910017,-0.08160313188454,-0.0797153146052738,-0.0687233816437827,-0.0688495695913323,-0.0596602749469127,-0.0807075352975546,-0.0666858555371476,-0.0821612442341528,-0.0815721375630488,-0.079824851301224,-0.0778637616868362,-0.0772916016904702,-0.0790000875364879,-0.0920083690516548,-0.0938727871486697,-0.0876813736272131,-0.0689683782044257,-0.0656289533622473,-0.0655868708771482,-0.0791353613933212,-0.0734197833946191,-0.0747461828228016,-0.0668058017269459,-0.0669308392269922,-0.0741623450091725,-0.0707719446812325,-0.080308853297095,-0.0638944842048529,-0.0735810978264608,-0.0697897511751886,-0.0707589213139293,-0.0646537554611974,-0.0669801297112368,-0.0654711979324212,-0.0672706346851611,-0.0612821566330122,-0.0686992373696124,-0.0766000020802484,-0.0711749581257712,-0.0671446866634764,-0.0635070187461044,-0.0695183898678175,-0.069934511217583,-0.0746333962356808,-0.0734556177759286,-0.0716352052873424,-0.0701969774493802,-0.0754603390887737,-0.0777537943658803,-0.085595885895664,-0.0815193169503816,-0.0891974228541841,-0.0699991143800314,-0.0722521796487376,-0.0784893168414983,-0.0780105458609152,-0.0771291494999838,-0.0621857147809003,-0.0578059663866083,-0.0624368676129934,-0.0605080337941122,-0.0686165927412641,-0.0691056875718491,-0.0773299498154482,-0.0656234354301407,-0.0654901929767265,-0.0511712671130316,-0.0559734347749334,-0.059623383521776,-0.0588165469704642,-0.0402087332047574,-0.0480786225913006,-0.0394875489769519,-0.0321852364150457,-0.0173870619772428,-0.0092711881240208,-0.0111833819059763,-0.0170609506001208,-0.0118099857829725,0.0042487905123915,0.0108380555075145,0.0275197476203454,0.0233754090472784,0.0274403890838818,0.0198153417455844,0.0272442904412019,0.0270915298564979,0.0252141164349031,0.0396794712196519,0.0419147801304966,0.0447072024342902,0.0244738326909538,0.0204941700493316,0.0164033943589929,0.0318918299237343,0.0326659142623102,0.0289598997237145,0.02465180357979,0.0233386985131983,0.0203317073337569,0.0331496742823125,0.0194373373489317,0.019073444350167,0.0185366921228153,0.0287059074927403,0.0338135828903377,0.0227222002060769,0.0308841961332017,0.020435745695724,0.0179361108758621,0.0220983035770607,0.0192869251486004,0.0068525347705637,0.0011890326023182,0.0021693614710573,-0.0010698930746833,0.0107445235334486,-0.0029028382697757,0.002349095032259,0.0009406280276131,-0.0217511647184885,-0.0139648286757465,-0.0035556066013504,0.0050043722134618,0.0095156073506549,-0.0036441928432609,-0.0064591305284302,-0.0171084855522087,-0.0059870315134389,0.0005323633934679,0.0067456616179782,-0.0021751829827725,0.0037337424625666,-0.0114042523035242,-0.0183699926777155,-0.0113202671742206,-0.0027345203044086,-0.0055368115287411,-0.0005592504035573,-0.0066047852270586,-0.0074024494986472,-0.0179545602036521,-0.023874079387187,-0.0148489556351039,-0.0144308066801785,-0.0117341821110025,-0.013167677784313,-0.0118610934367432,-0.0247637739767719,-0.0201515957793237,-0.0184223011171336,-0.0260465384031073,-0.019190368404348,-0.0033238297540994,-0.0086565827624722,-0.0103172007947805,-0.0228141844230615,-0.0346056841812299,-0.01886579718781,-0.0052400333828009,-0.0008917765350198,0.0056979856019769,-0.0123306625506756,-0.0130828279223288,-0.0069042225147025,-0.0001551566381244,0.0013741265304776,-0.0023448484201024,0.0084561917857842,-0.0020977043172279,-0.0095124030695148,0.0124308240186824,0.0264059200639145,0.0292316618491389,0.0545684335434364,0.0532755549962073,0.0467800540196448,0.0406424557750864,0.0547560800542617,0.0544324251264465,0.0755854915154867,0.0834786750762472,0.0815337392854206,0.097057336347999,0.0987648894342309,0.0936957242560247
1.0778038415392863,1.145837061172558,1.0488667380616246,0.7626526254960414,0.3779114920060027,0.0300374237639378,-0.1466795336728929,-0.1592678258187867,-0.1248435862397563,-0.0736024768694851,-0.0479761400136987,-0.0542644436486251,-0.0657743256559807,-0.0647166825790034,-0.0658130903881824,-0.0574257857585602,-0.0684823289847381,-0.0740712896577679,-0.069450887423229,-0.0640985427284049,-0.0622408576807654,-0.0493309568164289,-0.0574997605397815,-0.058888036662044,-0.0681941992162272,-0.0671069646889481,-0.0668084018014602,-0.06662484238734,-0.065299075111585,-0.0681849389876806,-0.0624953268975711,-0.0649202482701579,-0.0691179414844742,-0.0611795977547529,-0.0482362051832621,-0.056815755862278,-0.0622363772154804,-0.0589755495964214,-0.0661550782053793,-0.062693253190693,-0.0575015428438426,-0.0551631026011696,-0.0516978161069417,-0.0493874118239875,-0.0552278927523971,-0.0640410252955379,-0.0680702293827792,-0.0638872648459256,-0.0703034866485647,-0.0647303164967121,-0.0664977078423891,-0.0582949723043074,-0.068754536402116,-0.0634084607380954,-0.0683528614872964,-0.0535200467370109,-0.0527294795245139,-0.060479049634748,-0.0732563145778706,-0.0634867028933056,-0.0668589368657779,-0.0708751587093269,-0.0716156495718615,-0.0524784902311364,-0.0612870500535198,-0.048297759199314,-0.056503084290378,-0.0585229589592765,-0.0682770382671599,-0.0612775110950293,-0.0488180003010895,-0.0470815592998257,-0.0567638832955632,-0.0630041634655906,-0.0552460263605456,-0.0571782295240335,-0.0522656079315267,-0.0598979557315119,-0.061272880736894,-0.0539210795921895,-0.0548281653448858,-0.0535748556050383,-0.0472807926460453,-0.057755092155344,-0.0592171840722586,-0.0541877160453752,-0.0615701625446365,-0.0734153194185788,-0.0781404365813185,-0.06180165703018,-0.061368020849359,-0.0671910398554992,-0.0775913499187105,-0.0710188730004704,-0.0582900273770984,-0.0621816382492668,-0.0644960990257047,-0.0586412127159474,-0.0505816598829613,-0.0526679854088904,-0.0616641657599987,-0.0676772508480249,-0.0645616194504443,-0.0660255973256676,-0.0663630923548976,-0.055484424308256,-0.0537024553769958,-0.0467022283383811,-0.0505136750582109,-0.0460371620578174,-0.0432012921501963,-0.0355647811689065,-0.0161071549529828,-0.0088829527035945,-0.000135219845246,-0.0126204805094127,-0.0034103455274833,-0.0019797156494089,0.0096047846160785,0.0193363433617718,0.0226974221088902,0.0221516292990982,0.019235009984749,0.0174698495965814,0.0235663146581552,0.025895738952526,0.0166312082333947,0.02505966871148,0.0234178850612454,0.0143309556702276,0.0226402104954565,0.0201748220698792,0.0089688830759917,0.0146770867441812,0.0064569041923362,0.0280533797972131,0.0288273862941055,0.0288599753144683,0.0284116256419494,0.0126068012026347,0.0066965997498228,0.0063553685556638,0.0023202060971643,0.0145128804034482,0.0216315101078864,0.0219744519189372,0.0200114382776836,0.012213049353613,0.0160848662631852,0.0180115467925368,0.0168285508031758,0.019594724446751,0.0140769320431293,0.0057780999868981,0.0126114744585964,0.0024125637200357,0.0054800392900107,-0.0056486703614957,-0.0040050210175295,-0.0005824884461745,-0.003632152240317,-0.0103707002926522,0.0005769936419191,-0.0167903298644192,-0.0146553542155712,-0.0143538381467353,-0.0104366258881439,-0.0114844883749521,-0.0066040397600907,-0.0110519911695563,-0.0055509762538258,-0.0002835251211112,-0.0097726018429286,-0.0087238739131086,-0.022726456238301,-0.012821209459657,-0.0242582252596652,-0.0108340888622168,-0.0107682444293352,-0.0134719662403051,-0.0154415063173642,-0.0141595946920411,-0.0258227364812898,-0.0290272290372109,-0.0158209646088794,-0.0093201205079077,-0.0155028234520843,-0.0224380166691715,-0.0225695203341627,-0.0205284083404518,-0.0234927032433384,-0.0337485045344802,-0.0210716185916663,-0.0177712090417656,-0.0114705811272904,-0.0227821731908601,-0.0150007271889701,-0.0109146624237807,-0.0148502141267022,-0.0280154025671751,-0.0220247622216524,-0.0172666832779836,-0.0127632731224526,-0.0124935893356281,-0.0116153821345528,-0.0062194310939178,-0.006920718268067,0.0020812475375314,0.0073026452678947,0.019263640127902,0.0316153971309625,0.0322294315892977,0.0203425579990508,0.0375976441762069,0.0417406309467359,0.0490380579769764,0.0428874257957014
1.127402318908551,1.163670444400349,1.0584696827814402,0.771780833482732,0.4205837230909788,0.0868031650751332,-0.1099999348130768,-0.1676158078485368,-0.1785636677668849,-0.122360481157956,-0.0905571816233159,-0.0748195843353677,-0.0702351525830008,-0.070562808322855,-0.0699411864938635,-0.0740166288302347,-0.0691706794442807,-0.0657045500757901,-0.06710152892661,-0.0614158271483779,-0.0634935263478209,-0.055612752123672,-0.0655583913256497,-0.0688039311530475,-0.0676389476403191,-0.0683960834323698,-0.0648942755733918,-0.0598165078513696,-0.0575071953679035,-0.0650517769213818,-0.0602568960018033,-0.0435022023619637,-0.051852551772577,-0.0616787660802157,-0.0623907054647767,-0.0724779516002799,-0.0714990888440402,-0.0706902632009156,-0.0764641878044724,-0.073486572746504,-0.0696151504325648,-0.0780435192987501,-0.0595067639803055,-0.0770617075302382,-0.0732962536168254,-0.0825683510229059,-0.0661564210471882,-0.0655182555846738,-0.0557280397426416,-0.0457309041386897,-0.0399293103648637,-0.0641386594163203,-0.0597014275073095,-0.0666933998369508,-0.0533340889256966,-0.0575554745788538,-0.0593125668572481,-0.0511556779769022,-0.046119104030884,-0.0547247698994982,-0.0640675607683357,-0.0701737027405553,-0.0666621427128169,-0.0462716878401741,-0.0686256425960947,-0.0661125783003145,-0.0666428760754994,-0.0754188680384907,-0.0741739772545141,-0.0690392956698682,-0.0644573279252748,-0.0691988589096847,-0.0431394686706416,-0.0476287777186419,-0.0439079213047464,-0.0413232995154108,-0.0525112434628598,-0.0557029958454562,-0.0618865718864899,-0.0693835208711899,-0.0658621328842563,-0.0705365500039972,-0.0694477155800151,-0.0739040404176784,-0.069008493851799,-0.0638608517862541,-0.093016059092993,-0.0673451376760951,-0.0781436822831896,-0.0953939946138264,-0.0972313406380569,-0.096538103252987,-0.0982637630858414,-0.1100086882875438,-0.1099111149918444,-0.1136044542103176,-0.1082179894707731,-0.1046780050152648,-0.0964123750540242,-0.1010180157208341,-0.0931583399329426,-0.1004426247430429,-0.1010205385800749,-0.1101501094533214,-0.099371159368666,-0.099516553367364,-0.0948714935590409,-0.0943277772572774,-0.0780645359920718,-0.0626651969384037,-0.054342598094185,-0.0371853070554876,-0.0335661244615405,-0.0216625544056908,-0.0226424205554845,-0.0100676776799992,-0.0067051581967728,-0.0066707612560273,0.0041703408868576,0.0046021763350404,0.0044794943415507,0.0246083291403119,0.0353951460497853,0.0360012085015005,0.0301565075193408,0.0178347670611526,0.0308276395000765,0.0362574694260367,0.0193016158767839,0.027512380087286,0.0427674816146751,0.0342522967132928,0.0345917050481079,0.0277761376977094,0.0305652691777084,0.0306846867786917,0.0386482952349529,0.0267050010487689,0.0213479080740451,0.0170504615158181,0.012330184336986,0.016692052150268,0.0311783125716256,0.0119365089544352,0.0185180003070684,0.0140053238691122,0.0020691230331748,-0.0012053428186811,0.0020938121404479,-0.0010633053619329,0.0080733244729872,0.0207479757957718,0.0090741089094898,0.0139619697376444,0.0146363381076703,0.0099197438555361,0.0196395798324276,0.0195944927511985,0.0102639043806101,0.010899268044442,0.0052059240064163,0.0029770459589821,0.0008048314412716,-0.0091968776227074,-0.0066011544080939,-0.0035312539763752,-0.003007637429443,-0.006100256629291,-0.020611776101466,-0.0177827004807516,-0.0206617490059808,-0.0110475166255535,-0.0180671359117669,-0.0145449742469806,-0.0194391221801556,-0.0187231341737158,-0.0139464610865836,-0.0152471177698438,-0.0111166775223228,-0.0052196705319445,0.0017773955633779,0.0025502953592536,-0.0094820692799615,0.0018390322587752,-0.0002922306864256,-0.0036699766807847,-0.0095113860132201,-0.01169862245608,-0.0132581770227351,-0.0133463365576101,-0.002754121130883,-0.0126708822774372,0.0017439769435818,0.0013903368179422,0.0019256959196792,-0.002281766740152,-0.0026278660884148,-0.0096299028678622,-0.0119851928839347,-0.0075691853555683,0.0094135311997264,0.0022968613403691,-0.0017909073387037,-0.0142509043302292,-0.0084564386738544,-0.015982534322484,-0.0146734322501965,-0.0007333531377278,-0.0027951956516062,0.0012962088117524,0.0020658103519087,-0.0020404217244063,0.0222574216748075,0.0251770501388632,0.0437917750337479,0.0497514415398872,0.067236788406151
1.129955791389069,1.1911443837488338,1.1112466250028292,0.8898769921103024,0.5383310528418702,0.1781084148572153,-0.0607877191581069,-0.1449390438819144,-0.1558413889793986,-0.1332032953564229,-0.0900532163582535,-0.0696744673634488,-0.0674612061530432,-0.0657473635187686,-0.0666271952417948,-0.0548382111202478,-0.0528355848651346,-0.0481112634615408,-0.0605953600640087,-0.0578149237871995,-0.0525923338572365,-0.0504295582651773,-0.0490497710275848,-0.0605225962399604,-0.0639511766980695,-0.0612019657455878,-0.075063753317327,-0.0716608486876197,-0.0695693391367222,-0.0813547058355501,-0.0709135353931469,-0.0793389606436253,-0.0786061107006587,-0.0795448584944055,-0.0861662118118998,-0.0769124378707859,-0.0814025294703527,-0.0757953908171284,-0.0814142499206188,-0.06815325641484,-0.0744471486083697,-0.0739341548468082,-0.0620879347626158,-0.0710013838014201,-0.0723558874965698,-0.0755566494976495,-0.0680215664908106,-0.0725487470572263,-0.0695503128274495,-0.056902296544988,-0.0723797884211167,-0.0760218907132029,-0.0799583683021901,-0.0759613468470721,-0.0683929938661818,-0.0698006854088372,-0.0785985388558952,-0.0659962773867438,-0.0750062586725085,-0.0673668866370734,-0.0714997828802957,-0.0637538312885957,-0.0869267064307829,-0.0776372475845694,-0.0800625164042884,-0.0920558040947112,-0.0873182839228556,-0.0864286525975253,-0.0858839960665916,-0.0813774198247665,-0.0721987902109951,-0.0773000150826563,-0.0817140773526173,-0.0716446000620174,-0.0730417475832305,-0.0752367700174401,-0.0762929750570175,-0.074952751865308,-0.0722345363064492,-0.0708468736505837,-0.0826968133024591,-0.0768237301970773,-0.0849315736889322,-0.0842898627045356,-0.0753863558045929,-0.0717394260883129,-0.0768484131891554,-0.0859988613627972,-0.0908979971524863,-0.0975567155039973,-0.0948246113865989,-0.0903652106408991,-0.0832236591107049,-0.0952599822026924,-0.0996787344924439,-0.1078482736007418,-0.0975683483718215,-0.10977027449876,-0.1023015219350028,-0.1072153574771326,-0.0941866116534217,-0.1013112506316204,-0.1021527193700912,-0.0968798958157976,-0.1065617486573562,-0.0917021042073031,-0.0967669365167585,-0.101164694036899,-0.095388396431614,-0.0907837207239065,-0.0929805122957546,-0.0857064875359765,-0.071563955254683,-0.0693514442919731,-0.0606708599226288,-0.0539282697885393,-0.0412960661992603,-0.031406034093289,-0.020171048639656,-0.019302042648134,0.000587792880583,0.0052600655111269,0.0054689966372368,0.0157435333559381,0.0148833935861294,0.0226583064143523,0.030659356475282,0.0410106633883557,0.03401247760698,0.052233359008172,0.0373866360083098,0.0385087006776613,0.033342847006804,0.0412534349492652,0.0342926992986076,0.0400433736096994,0.0434604133723649,0.0412720701573218,0.0399978067876978,0.0247542229302208,0.024821372047929,0.0299202088720531,0.025520550140174,0.0318404272976763,0.0429092912671213,0.0321468012105884,0.0241668198845433,0.0308511301056111,0.0401295738023495,0.0382081550485692,0.0378968128944111,0.0400386581893315,0.0321570561876504,0.0210425736238742,0.0166177181599079,0.0177471870148018,0.0236582939774167,0.0293453218115092,0.0248146710039269,0.0244673709265944,0.0126722835858065,0.0099766918948764,0.0083336654724452,0.0095695272727498,0.0233240559564779,0.0216852893979615,0.0113952491287142,-0.0030782061651242,-0.0085384815701154,0.0045434680415859,-0.0119349004024078,-0.0106805762249661,-0.0019691937921607,-0.0091664124951189,-0.0057173583434981,-0.0113531171765057,-0.0065458107179528,-0.0163339152483638,-0.0051997428043713,-0.0031922157659549,-0.0017467075419305,0.0022408246989192,-0.0164676708362889,-0.0304111648736248,-0.0210802339047948,-0.0121938985239925,-0.0064986077892849,-0.0139223029654063,-0.0122830221995333,-0.0343841914787445,-0.0244611476616661,-0.0280690675703196,-0.0161523736860319,-0.0094951196363989,-0.0138201341585594,-0.014807917295818,-0.0124882657322338,-0.005561693207052,0.0032102797475812,0.0052913486723864,0.004674071937674,0.003059916350979,-0.0076803890912081,-0.0076323598920436,-0.0182388846022244,-0.0099339677055086,-0.011027644416494,-0.0044444105057857,-0.0105508667891374,-0.0077171285301235,-0.0043895661757033,-0.0152782442831808,-0.0107226909439012,-0.0105260087501566,0.0009810996441781,-0.0013947146644013,0.0104889650831179
1.175084921522514,1.1982026253071838,1.0450690680422174,0.7494093616242271,0.3684379347808631,0.0545379835842158,-0.1281215284739345,-0.1429372435453845,-0.1417138922686061,-0.1016998301595081,-0.062604506390174,-0.0620996206912661,-0.0591512974678932,-0.066138615035098,-0.0718713199667067,-0.0722072947917311,-0.0680567878162187,-0.0735751104942972,-0.0669893019925048,-0.0632492562116347,-0.0752321363594059,-0.0764745684296781,-0.0822616219817191,-0.0932439246493926,-0.0937459681080268,-0.0972036300801132,-0.0734699843794679,-0.0751579831660852,-0.0758212267219025,-0.0862192375927862,-0.0975274159263862,-0.0940194233773742,-0.083360654982374,-0.0745319283928539,-0.0750373172993919,-0.0893345733805496,-0.0843874278180395,-0.0917822481170942,-0.0849538289856604,-0.0801453103958663,-0.0655722011759897,-0.0743308718260702,-0.0773380312832276,-0.0826247428499835,-0.0815456920085212,-0.0812393704031077,-0.0717223701776936,-0.0660657735531631,-0.0583366561514721,-0.070642981245122,-0.0714488044256563,-0.0765456433356585,-0.0721092741871345,-0.0726016818435799,-0.0562711850529887,-0.0627797253054606,-0.0697104282160515,-0.0856165543821941,-0.0811099578535778,-0.0821512181305881,-0.0830316776059635,-0.0818216780840036,-0.0780274683527108,-0.084283962111012,-0.0795331887307808,-0.0949248055664346,-0.0816476279602579,-0.0935895924782962,-0.0779925150766024,-0.0737760524524495,-0.0688010898198028,-0.0729599543731762,-0.0783216187186184,-0.0861620909418173,-0.0794975666959664,-0.0744401811618781,-0.0644666838009402,-0.0580541087844338,-0.0612493222179088,-0.0718578689725192,-0.0859006687589471,-0.0854124234708895,-0.065624565610545,-0.0749026518642861,-0.0673758962410239,-0.0599198791197574,-0.0757212539463545,-0.0705501053371943,-0.075853586295654,-0.0713837027506998,-0.0753872555828109,-0.0772090998457073,-0.084102490358063,-0.0796156366811656,-0.079711735044239,-0.0857361537538363,-0.0820237481813761,-0.0762862789656623,-0.0775934495124972,-0.0634745817930628,-0.0632028296794441,-0.0833943141915272,-0.0804122036489067,-0.0728721096876764,-0.072554183412583,-0.0581487661605659,-0.0377128441257467,-0.031558321719587,-0.0420069682708108,-0.0252115623810356,-0.0288387214087948,-0.0037646570186449,0.0064588557220636,0.0130840707092301,0.0198821393639556,0.0041141982718155,-3.4263956463054985e-05,0.0055083821508822,0.0154087739792405,0.0311240576007196,0.0334927139829339,0.0208103489587024,0.0250849813759924,0.0255311257330293,0.0204481269771821,0.0198277376794895,0.0254415392168045,0.0282670422368238,0.0263970152971205,0.0063127608850244,0.0216977477394131,0.0207684007207874,0.0240704791724987,0.024223937103357,0.0326635204907665,0.0320890290120069,0.0379698005845439,0.0231675715771128,0.0209900887180948,0.0179681955579439,0.0078033945821469,0.0171959683489571,0.0230627424146169,0.0147019433139551,0.0043972692633388,-0.0040751966676916,-0.0031128212636443,0.0017455825197348,0.0170664310408445,0.0089499787119523,0.000933979267189,0.0001789215414402,-0.0090584327090736,-0.018595219521026,-0.0037425832925854,0.0069051872407861,-0.0008198686619762,0.0014734347864214,-0.009106271977368,-0.0083929453613138,-0.0083058616465546,0.0009393518058295,-0.0088520211976999,0.008607046507906,-0.0032474813770605,-0.0078826976234394,-0.0119532475703221,-0.0127123604794414,-0.0148023565834758,-0.0103126523243266,-0.0172593372248163,-0.0076017766187928,-0.0060448808853915,-0.0252825409699424,-0.0274756243296991,-0.0410771425699618,-0.0319030717872627,-0.0327177432873611,-0.0214608435073333,-0.0141796520630011,-0.0241111794942461,-0.0277415314000409,-0.0322890402307874,-0.0228662160701601,-0.0175993562148024,-0.020415462246903,-0.0230531438595213,-0.023617345300381,-0.0279192692678856,-0.0326643209293457,-0.0130163953481132,-0.0074907166480519,-0.005234153323363,-0.0078406628536133,-0.0132026008235318,-0.0222366359705368,-0.0170369290683865,-0.0179655669207891,-0.0131649785507445,-0.0060623615877818,-0.0128983929315825,-0.0170740996386147,-0.0255565957688359,-0.0260791882970747,-0.0135276452059438,-0.014749142374546,-0.012188851636861,-0.0073726136309462,-9.424918291264922e-05,0.0013854259725211,0.0093207499504781,0.0201486631427645,0.0335177993534644,0.0473187141334181,0.0689150220700551,0.0669718148251427,0.0576295232314886
1.0831854907816774,1.109832562068084,1.0084666077315023,0.7355476424415205,0.3748067800941616,0.0529924127655532,-0.1225344107963121,-0.1564818920817439,-0.125679876814569,-0.0916276000979424,-0.0634367832508163,-0.0586219652944154,-0.0560096052896168,-0.062547743145599,-0.0617530718122907,-0.0650744002436927,-0.064903876048274,-0.0666128682473786,-0.0579784200764132,-0.0567076025401359,-0.0683143624831328,-0.0760588017657979,-0.0726961441067318,-0.0722881397564442,-0.0705746461260249,-0.0639302971866891,-0.068157255301614,-0.0481989737443126,-0.05369780333126,-0.0594891457076706,-0.0604452447216814,-0.0710522892515208,-0.0805312514576871,-0.0736572448299085,-0.0514280966053707,-0.0555991278143032,-0.0621725399829976,-0.0651797832287205,-0.0671292010280367,-0.0560425709799708,-0.052366877962999,-0.0488938651535243,-0.0635034023586321,-0.0716052328588621,-0.0656115281788292,-0.0620574078033922,-0.064585717561062,-0.0601513588245482,-0.0573425048285487,-0.0532937753710713,-0.0619203325781961,-0.0649830377345096,-0.0749428354008353,-0.0670280384103466,-0.0587782773862904,-0.0626732141235495,-0.0690903877699929,-0.0713247095647237,-0.067376657925515,-0.0616707490436261,-0.0651873268507807,-0.0641848474280838,-0.0589928057403769,-0.0590416460215294,-0.0638476483365374,-0.0786802010232264,-0.0741191309684302,-0.0700675059909785,-0.0654917057186579,-0.0593972684578224,-0.0471040539093592,-0.0503479794066664,-0.0508112245010891,-0.0533639314548003,-0.0758305381282507,-0.0657722243883836,-0.0627809008443104,-0.0540913375474037,-0.0527519146867966,-0.0598943879629056,-0.0736092695549709,-0.0705510851113257,-0.0588880117239328,-0.0549264995611742,-0.0519276864485515,-0.0522054805149043,-0.0651514571930572,-0.0579262902232075,-0.0580757231732327,-0.0706183796870548,-0.0627745072649358,-0.061777350369381,-0.062926012338323,-0.0596242777678817,-0.0501346423236107,-0.0641904194865012,-0.0729453997181187,-0.0575307082381664,-0.0578582924449194,-0.0579089625148738,-0.0570778158483663,-0.0610078943905985,-0.0709223337832975,-0.0671405212093152,-0.0784417002807725,-0.0631313230715392,-0.0658512194353969,-0.0432439409554992,-0.0375941805320061,-0.0396073216789888,-0.047501706084958,-0.0434639135747163,-0.0212410179986011,-0.0274328421322036,-0.0351633519189405,-0.0062678342274661,-0.0095898702348637,-0.0070002489118216,-0.0012186115723019,0.0021664214956577,0.0003182526192522,0.015775231498642,0.0136055752684708,0.0161530776462004,0.0057531591442763,0.0176565670071159,0.0050555006261946,0.0159971202878058,0.0102026981625625,0.0190683236667861,0.0190368091144061,0.0151249524722493,0.0260970119760028,0.0259809042161885,0.015220949429181,0.0251918501183154,0.0315872188097321,0.0234540160992991,0.0240242544854649,0.0075977821240279,-0.0044820855407748,7.614657661182238e-05,0.0072680893486785,0.0056077233304857,0.0123144534898792,0.0008940061396912,-0.0023253768461164,0.0057365679579533,0.0071263591888296,0.0009337578763647,-0.0109344620249298,-0.0109632377668767,0.0012006122336823,-0.011633071646697,-0.0067890531344212,0.0059096119577884,0.0141505482190411,0.0153753967826726,0.0090638128268477,-0.0030338484113183,-0.0037484670733606,-0.0075079449636303,-0.0256084103655539,-0.0196773451821167,-0.0200305175253594,-0.0205760754881359,-0.0152112765649673,-0.0141065904332495,-0.0134679363414129,-0.0240585561265466,-0.0101432108062864,-0.0151119875372422,-0.0132405596575037,-0.020728051656495,-0.0197600952524412,-0.0163492144645558,-0.0290873595796168,-0.0252162922393844,-0.0181814052148969,-0.0092640782502626,-0.0116127968988233,-0.0174253340583782,-0.0208639671170398,-0.0287024684509943,-0.0081878582034618,-0.0195129308348893,-0.0306294913041069,-0.0095891292583715,-0.016865102123914,-0.0050673996279507,-0.011200004069927,-0.024295593719322,-0.0260487290538263,-0.0240513218997999,-0.0144448498136869,-0.0211651253531638,-0.0172631236288216,-0.0168009560717001,-0.0254641558508615,-0.02450533977466,-0.0143342066870177,-0.0042742594479774,0.0063846443343466,0.0073506688525898,0.0275740465625811,0.0265634636519941,0.0302769771525564,0.0404193648338812,0.0626665720541801,0.0556352901861596,0.0668711976899328,0.0651460667035525,0.0668846099439766,0.07516264728802,0.0919827060284961,0.1062977991020953,0.1147317982363786
1.041816384455252,1.1751341353058569,1.1688523232892738,1.019401927177182,0.712074494200958,0.365290139285943,0.0965495737182973,-0.0554389931219453,-0.13431456416634,-0.1968437816560031,-0.2105535955857859,-0.1860147734698849,-0.1216382890466957,-0.0809350501333916,-0.084500352615865,-0.0793763261839904,-0.0814508603779053,-0.0638913180141465,-0.0586702036827515,-0.0648847278037366,-0.0753450576067911,-0.0693492102287852,-0.0634452503399789,-0.0693728421686077,-0.0666098957814591,-0.0724919243412108,-0.0750739729015511,-0.0807299626354476,-0.0734200956019505,-0.095901203585864,-0.0965506832413612,-0.0952810099519748,-0.0731336902037021,-0.0613069766695934,-0.0655388926856715,-0.0610514703259566,-0.057630952352645,-0.0745500718998297,-0.0906133281628834,-0.0797588095673755,-0.0620349675865946,-0.0640413209816337,-0.0580528684208326,-0.0751925929199404,-0.0691560301445465,-0.0718616659066218,-0.0808361850895965,-0.0614488600389362,-0.0669416764323201,-0.0659489239378051,-0.074442435763249,-0.0697341090796557,-0.0825419075231763,-0.0904962661521625,-0.0701420530045282,-0.0657058813340884,-0.0656410039249601,-0.0598480859318194,-0.0648616823122405,-0.0817509736709588,-0.0842416871336425,-0.0645214057026237,-0.0712600264291484,-0.0716728156867655,-0.07503479158955,-0.0736101142336298,-0.074924650767107,-0.0734435134466374,-0.0655441681172684,-0.0632088790644351,-0.0626912230364058,-0.0740291720851013,-0.0663498837995653,-0.0784197407189374,-0.0841166704697279,-0.0728887458708061,-0.0652102330815675,-0.0626514249696133,-0.0671127351181781,-0.0694200260001511,-0.0783282482475197,-0.0760416266721044,-0.0902407369528663,-0.0711409071998309,-0.0717201657869874,-0.075580776936224,-0.0839821791782361,-0.1095489894016193,-0.1029598766675631,-0.1014182292812035,-0.0910501559336044,-0.0811261275720307,-0.0956380463649752,-0.0850421410554896,-0.1058909350446157,-0.1086568110048973,-0.1213749638922959,-0.1011025620346375,-0.1020986378867666,-0.0873709061527232,-0.1064606332640994,-0.1061127297716816,-0.1130140374916634,-0.1062357478535653,-0.1025601288724027,-0.0847907184284831,-0.0696656754853462,-0.0669496472436689,-0.0600243607906819,-0.062137248832964,-0.0523214229328381,-0.0406555316828896,-0.0231047626452992,-0.0211623860353123,-0.0212245280694088,-0.0087081417505603,0.002576336040968,0.0100289118184753,0.0206759204244476,0.0293962534030965,0.0285415839109828,0.0296806410415958,0.0213710001478654,0.0256675866131762,0.0268209327718127,0.0179283311156289,0.0232332411478385,0.043480703614735,0.0342590439628856,0.0396468503950065,0.0380740512733885,0.0195811588194505,0.0267182658104452,0.0275047563655414,0.0371231594394123,0.0418635600483044,0.0420055651778919,0.0363499775695505,0.0189990764750003,0.036183909114411,0.0256453366421241,0.033754210275687,0.0333545332205431,0.0300485909320271,0.016257249527624,0.0242325370490997,0.0147011869756817,0.021860479794157,0.029217522695746,0.0304042453613234,0.0196314114228624,0.0269772043511706,0.0185828216407425,0.0213714699535061,0.0119616786805675,0.0152603661874128,0.0189825017894832,0.0249814947418845,0.0167451208593179,0.0160357214051053,0.0069505352492842,0.0027521171465259,0.0029658015795953,0.0033807591161871,0.0092923484137463,0.0044445143844974,-0.0027160573199588,-0.0067255200402695,-0.0045941042339876,0.0016839621997251,0.011766365840491,0.0113705193081093,0.0107215837736372,-0.0058078348078994,-0.0034136412704135,-0.0056918562605695,0.0045480186687843,0.0078821956437589,0.0118403320939495,0.002487504400345,-0.0019292186818791,0.0012867550276013,-0.0024651816604057,0.0052271115936037,0.0123403066195407,0.0126813073032125,0.0061383708187035,-0.0016620003667493,-0.0196206481617163,-0.006340113560444,-0.0006919044228669,0.0021928222786668,0.0003934972318397,0.001129576349676,-0.0070674275309154,-0.0026671117085388,-0.0117756807319901,-0.0111013163864847,-0.0159575167678311,-0.0105147610065592,-0.0046431304588174,-0.0047696105254385,-0.0023640687871586,-0.0116298212037208,-0.0043164458361341,-0.0075543467263601,0.0078241615113939,0.0221272090841252,0.0306828047328219,0.038459901087066,0.0558425263911761,0.064245041929606,0.0652356563116287,0.0636623106090679,0.0818781697578412,0.0865059344034723,0.076606469567729
1.095588901126647,1.2026598914047155,1.1358588052104943,0.8960437777933667,0.4783502157673039,0.0964963733759623,-0.1119987274828272,-0.1641396326153448,-0.1544188325215362,-0.1094779561062573,-0.0704101883284993,-0.0511590444839269,-0.0549817963452069,-0.0622256669106336,-0.0759001487688549,-0.063810132625736,-0.0750090346691314,-0.0646484174907793,-0.0631643892555871,-0.0560958660201322,-0.0545384545080675,-0.0700660646822464,-0.0684620305478984,-0.0683036867397144,-0.076269263717986,-0.0696667308649456,-0.0742314352513737,-0.0793208991461311,-0.0696401409899643,-0.0709887180087866,-0.0689550427221236,-0.0772293111999938,-0.0680156609835673,-0.0747788204504601,-0.069613111411844,-0.0672632333709304,-0.0759732622303497,-0.0788885614484855,-0.0848638969556821,-0.0836215491081897,-0.0808099542307342,-0.0830619758303182,-0.0874885892360433,-0.0803065424172114,-0.0804407983100141,-0.0746256949913455,-0.0896000360206526,-0.0749705968937135,-0.0841708791480057,-0.0821551405377156,-0.0763243179641944,-0.0741206295474424,-0.0796928502086565,-0.0636058342437032,-0.0667092987768894,-0.074711353643606,-0.0735831185409954,-0.0595873742011133,-0.0731770421864944,-0.0827440454999508,-0.0750445315173684,-0.0777313108293561,-0.0769775905710935,-0.0723696259442657,-0.073405166772941,-0.0753151457268275,-0.0831565562919257,-0.0805724266939927,-0.075312223323244,-0.0865940576954937,-0.0718646153023045,-0.0704926966608011,-0.0798839000970936,-0.0875554337456587,-0.097469206963034,-0.0701140937506627,-0.071940417635165,-0.0647688633998946,-0.0601516078293597,-0.0734780951650123,-0.0782448924865546,-0.0764587165121095,-0.075555724661987,-0.0706909332086141,-0.0753124452616386,-0.0739287194676937,-0.0834282095594721,-0.0810296544985235,-0.0960206630399047,-0.099293567208738,-0.091994335830651,-0.0949738686126011,-0.1141644984312313,-0.1156184655098192,-0.1244640149099681,-0.1238126853340275,-0.1204066158338793,-0.1022575305843167,-0.1060876095439605,-0.0968044506228866,-0.0986694969993477,-0.0962146258923858,-0.0988634301268299,-0.0902481597980458,-0.08381251059463,-0.0596458046988516,-0.0505122018733905,-0.0402417739270157,-0.0452648056206151,-0.0474953189564465,-0.0261718607553408,-0.0177051507833951,-0.0043388737452989,0.0020859527114916,0.0057454108975041,0.0020887559220577,-0.0021091310820571,0.0106960727241649,0.0173397400890504,0.027258123818685,0.0321634420395939,0.0230399140295401,0.0133934518715239,0.0160644751457627,0.0115710575458558,0.018789982974757,0.0264253073488844,0.0335382315226267,0.0141561728405335,0.0273135953546645,0.0231622226478975,0.0189399835168122,0.0280199376583171,0.0220579260292391,0.0237136853754311,0.0226753298169385,0.0199141389535732,0.0116768915704909,-0.0007533771853405,0.0089826506005465,0.0216483038358316,0.0312083820429551,0.0346179225354281,0.0287081743081893,0.018111808228472,0.0064737871063937,0.0141333082209869,0.0236479797220579,0.0220198235296894,0.0175494017313666,0.0202775186643245,0.0014708820481757,0.0030093252625222,-0.0031729389119298,0.0040248349631247,0.0237869199494344,0.0081631656351646,-0.0013321434421638,-0.0159320133630053,-0.0179166174864643,-0.0070272931882184,-0.0045179079060267,0.0033318584473272,-0.0044225612440205,-0.0038585026986451,-0.0109930998299662,-0.0154779882976178,-0.014691390778269,-0.0250437117963093,-0.0151444058430291,0.0020307767358327,0.0007021810640273,-0.0079624954564835,-0.0169193880359347,-0.0191449717470184,-0.0132907028071623,-0.0094242110601723,0.0004532654685503,-0.0119446114474585,-0.0190534222298054,-0.015150964819946,-0.0160984510008465,-0.0120905853648373,-0.0066537156396282,0.0015319207431874,0.0010553046002352,-0.0070866633987957,-0.0208666974811089,-0.0234672452116653,-0.0186980816886313,-0.0211709193906784,-0.0167875949329477,-0.0079923563130218,-0.0127165341934312,-0.0020730273158734,-0.0036468886697711,-0.0025099573329647,-0.004949787676618,0.0029461218690546,0.0053333234650289,0.0059861986847061,0.0086928656083329,-0.0111204370837615,-0.0054545299410747,-0.0004107443134036,0.0052412621861215,0.0179305678150403,0.0313740697626815,0.0318689443444222,0.0322072403200702,0.045139563493275,0.057016801922633,0.0719697247385364,0.0720731588196163,0.0838423693228607,0.075588835509299,0.0740818281760429
1.1651941932117782,1.199388286013259,1.0624180742310514,0.685727443049736,0.237205202739152,-0.0675349871939695,-0.1772296770642682,-0.1772749837609276,-0.1342213775751048,-0.1030462750475281,-0.0557746821204791,-0.0488222799059464,-0.0471611049216275,-0.0557248801164544,-0.0706702802077556,-0.0733861649911183,-0.0681244014698988,-0.0713167072879853,-0.0742774032001024,-0.067207274495813,-0.0602724870993545,-0.0647702590517832,-0.0672633287395074,-0.0722346846955981,-0.0761625506544452,-0.0749728645694378,-0.0631873786313589,-0.0555707949919228,-0.0687917878175675,-0.0704103861327648,-0.0757305540200846,-0.0710883972467625,-0.0763027626908221,-0.0747107058519728,-0.0758533281798545,-0.0573852705633673,-0.0682543126466214,-0.0743776588476557,-0.0714176148458939,-0.0678239295044078,-0.0610251966461651,-0.0608243299828226,-0.0560038133368054,-0.0665284040175729,-0.0684474823564627,-0.0766999898054478,-0.05883817635286,-0.0618948674840095,-0.0559319519355291,-0.055302560427232,-0.0754237567619335,-0.0774910463419057,-0.0763301700090101,-0.0742118379169589,-0.0627796233164167,-0.0817324064768586,-0.0703480942227631,-0.0794556391449802,-0.0809920241337055,-0.0803095341351064,-0.0744635029266295,-0.074164812283673,-0.0731563704553054,-0.0655762259126368,-0.0531514890937645,-0.0590728399904298,-0.0742435405395752,-0.0650583254762852,-0.0708817140788654,-0.0645556378980974,-0.0505154556970634,-0.0617049367749637,-0.0624052416497282,-0.078600772722383,-0.0907785698176815,-0.0772384804079577,-0.0754611712549906,-0.0653927642973621,-0.0658048137670605,-0.0714359373880322,-0.0781303282107425,-0.0809334766839539,-0.0628101142619572,-0.056142982712601,-0.0658860543212466,-0.0658304426536827,-0.0808493885085804,-0.0871463750802711,-0.080178231134645,-0.0729532777082551,-0.0722893202362573,-0.0722914216614282,-0.0763591312537161,-0.0699245490556731,-0.0803747061791345,-0.0689847911229299,-0.0734142882229636,-0.0741463380798864,-0.059073424283372,-0.0615929583084718,-0.0534093506539971,-0.0483825730421344,-0.0581814169424112,-0.0694405221675709,-0.0561071509409827,-0.0503582317282929,-0.0362616391904918,-0.0319142134777147,-0.0220545118869425,-0.0180360535963478,-0.0254033984023276,-0.0122656644364821,0.0041363620062026,0.0090157865318215,0.0086696365622663,0.0083500596111348,0.007090473510126,-0.0004067185684601,0.0226292380578749,0.0187683350277327,0.0283645178034162,0.0181351210060693,0.0185152917075826,0.0130863446429107,0.0157379222916506,0.0278688447632555,0.027653125470944,0.021639302864264,0.0072507320695307,0.0093639935696921,0.0100932891251605,0.0172321751293187,0.012511790040011,0.005669110606302,-0.0003083625206825,0.0070116782587423,0.0160416411404923,0.0222496252081399,0.0030600336690499,0.0014103696540541,-0.0062945838402235,0.0185815639239059,0.0126030682987757,0.0076760376493247,0.0084956092343702,-0.0019655554603348,0.0004443403157293,0.002840858228943,0.0085216241373903,0.0131713546254935,0.0132120838464411,-0.0063622269159941,-0.0069789839317026,-0.0143263859414532,-0.0167281416058845,-0.0063428000401638,-0.0173173647215062,-0.0125094439974325,-0.0314354148800223,-0.0359306503480289,-0.0227470398717878,-0.0308999513730708,-0.017055534873232,-0.0139860589832164,-0.0185424982725576,-0.0256404063950941,-0.0136846099773645,-0.0257755823401358,-0.0257730948870239,-0.0337457317795149,-0.0258401583654715,-0.0137374735267439,-0.0188092155628664,-0.0212259073421936,-0.0295755521121704,-0.0365291259230586,-0.0454186575497005,-0.041678885036111,-0.0278649392870089,-0.0269022535628884,-0.0397471599616543,-0.0343865449520172,-0.0422152673668753,-0.0408697157599676,-0.0362301495927209,-0.0268387986017919,-0.0360957122366134,-0.0345094713940056,-0.0392949120175807,-0.0416544935222032,-0.0398272061271031,-0.0353867745732708,-0.0318102135386404,-0.0316361131147151,-0.0345992103457008,-0.0331352474143144,-0.0295935905225259,-0.0282033288169424,-0.0253106350733649,-0.023017345246739,-0.0225811343795688,-0.018817827433413,-0.0206432809947754,-0.0069717784388425,-0.0122115688878879,0.0137228046312458,0.0154936751348929,0.0223257900052107,0.0531596328255477,0.0472529556649963,0.039944182881702,0.0377945715935318,0.0426289906241568,0.0600149218024524,0.0734914521580616,0.0854650559616845,0.0742738320877331
1.1384000802019003,1.1912033302412874,1.1484432272336815,0.952711098304588,0.6151543945454694,0.264267792180874,-0.018034733265727,-0.1638374109655906,-0.1873533436250068,-0.1404795160196886,-0.0753813196374177,-0.0668890453809066,-0.0676215756041571,-0.0707469586682704,-0.0773511555865195,-0.0806683795492895,-0.0877223800505794,-0.0818269168415502,-0.0937775622107498,-0.0858849698476549,-0.0849324500131753,-0.0759144322053375,-0.0724595645221333,-0.0682294670299619,-0.0628733405166566,-0.0818423247445007,-0.0756149111299818,-0.0843346454119819,-0.078152710660487,-0.0826059446193985,-0.0782846405658953,-0.079967679615607,-0.086265841512655,-0.0905278839512199,-0.0774510027772479,-0.0838313881540725,-0.0774011991279716,-0.0844656234043872,-0.093427377303736,-0.1007803237798138,-0.0890033338390564,-0.0739039829578415,-0.0742067588878336,-0.0885221097888377,-0.0922306440632956,-0.1020388053320544,-0.0986908566530175,-0.0955392965519992,-0.0998934599588598,-0.091011701444471,-0.0915306300228434,-0.1054145357309696,-0.0940621450590697,-0.0894153162993291,-0.0913077096349373,-0.0922012032431585,-0.0848736135296826,-0.0802670223201123,-0.0922148979328389,-0.0788556540838703,-0.0841425976552285,-0.0931770347874066,-0.1015236913920623,-0.0946044366005089,-0.0728186746679549,-0.0719027610040348,-0.0876376409523754,-0.0898718510953575,-0.0969570324227813,-0.086657195119071,-0.088153200659725,-0.0733204884726035,-0.0756911420344656,-0.0825421677709639,-0.0825660907173904,-0.1014753753369274,-0.085433071717662,-0.0694984921127301,-0.0679336994569642,-0.0758091973133789,-0.0896802875152946,-0.0861171151144961,-0.0894931209035795,-0.0717022903899682,-0.0697397893854415,-0.0639410517708667,-0.0784720920921877,-0.0879922666141947,-0.0832391832593079,-0.089779813492829,-0.0915390991243154,-0.086214604168713,-0.0776266453318162,-0.0826215368483516,-0.0901196948245063,-0.0876340364094065,-0.083428211257329,-0.0873789121858012,-0.0852879481140568,-0.0829057075085333,-0.0757780838766732,-0.0646618175670609,-0.0604165948627995,-0.0530112438250902,-0.0657152789198058,-0.0508703870447033,-0.0471580973263098,-0.0413910773584645,-0.0477140844024373,-0.0442910103760691,-0.0401846062124433,-0.0455038235488648,-0.035231598873965,-0.0236727988183936,-0.0104923765624894,0.0029346603609965,-0.0110591912997156,-0.0139749389266128,-0.0139534261758523,-0.0015379200098738,0.0115826531948686,0.024083112894518,0.0153854022053692,0.0202060303769444,0.0084527823070344,0.0208457568797865,0.0092643700533251,0.0257180131914816,0.0053701880257247,0.0205683163155227,0.0224164353369044,0.0140781326045178,0.0079276683561084,0.0091829795422907,0.0116822845676992,0.0043232687098543,0.0065191898709552,0.0126615609027194,0.0119202878125,0.0091641095631959,0.0010319783378329,0.0054242320705866,0.0041127983908614,0.0204816526470422,0.009992577804662,-0.0012686001989132,-0.0027919397501471,-0.0142959307237678,-0.0097899427348975,0.0021371170464953,0.0165790103153936,0.0210932488359177,0.0070290522768593,-0.0021222818071801,-0.0034882581159026,0.0035478104927142,-0.0024165503899668,0.0014610276322799,-0.0016020140906653,-0.00241037458688,-0.0054780519222477,-0.0089722117774533,-0.0203590678184554,-0.0179491296025315,-0.0124954195739377,-0.0123092837062404,-0.0111633962439149,-0.005221059089588,-0.0015649766551317,-0.0150104844486237,-0.0171674167557902,-0.0194848709938622,-0.0124861643246126,-0.0214825069014311,-0.0221760237957138,-0.0198924516801017,-0.0282455343653398,-0.024280852955232,-0.0208444184661707,-0.0092366205403352,-0.0191501918469469,-0.0100697246629311,-0.0169440231697853,-0.0293375920317399,-0.0105513504218742,-0.0085382993422302,-0.0082661962837896,0.0070595641017007,-0.0170079019792027,-0.0170675396300636,-0.0145209237590034,-0.0128535141321239,-0.0082115164691913,0.0066328487836296,0.0139776882203288,0.002625922966287,-0.0064724939795793,-0.0206221828383068,-0.0068219340406446,-0.0136976526163766,-0.0027523514592136,-0.0077675626377012,-0.0073112112231051,-0.0019302194181996,0.0117031278138587,0.0186207090187022,0.0367153967428937,0.0492247608651974,0.0557870029211609,0.0615102277025525,0.0509030354216931,0.0484238234112851,0.0550654024871509,0.0686514351722633,0.0766265283387028,0.0831046842012694,0.088483707630193
1.0799361421044542,1.1384724035935363,1.045732824914835,0.7937891764628006,0.4553496261876351,0.1455557030102627,-0.0343241107314364,-0.1341645128391698,-0.1652319691700825,-0.1380772051971476,-0.0857829850987695,-0.0551798361453663,-0.0603143565784429,-0.0494844206751631,-0.0580286471299194,-0.0583022156881115,-0.0516418119825973,-0.0508467158450557,-0.0615440812599402,-0.046668836370049,-0.0394952898660512,-0.0464912142071581,-0.0563322205911357,-0.0507227505366975,-0.0565708758866751,-0.0481480531547084,-0.0477376715674797,-0.0391726351654272,-0.0601299786304915,-0.05508113960324,-0.0705058793901718,-0.0723898062730288,-0.064243348164653,-0.0633311658901723,-0.0590599833623792,-0.0546636425100714,-0.0697197160932547,-0.0754510147676618,-0.082604823843742,-0.0696760950802508,-0.0839843327885454,-0.0698264047142905,-0.0652091026964775,-0.0646922717799205,-0.0548960596175502,-0.062123037929614,-0.0550184824240819,-0.0453493697223879,-0.0515304507396789,-0.0511566641512986,-0.0593292797351534,-0.0537920020828365,-0.0615757135201366,-0.0559499351361053,-0.0524602576548074,-0.0535079628417331,-0.0517963997465737,-0.0585849002283335,-0.0728096767685908,-0.0916836825395113,-0.0875162152322432,-0.0746309755537623,-0.05001567843994,-0.0470637097851321,-0.058134469802124,-0.0526868066973902,-0.0525064199001045,-0.0540360928315985,-0.0611184880731485,-0.0559883605515334,-0.0426286977702197,-0.0587009951243519,-0.0534642325817784,-0.0533569815714706,-0.0697864224459567,-0.0668939914072534,-0.0671193768295859,-0.0541985581648227,-0.0602757503575152,-0.0544103284051872,-0.078513643269507,-0.0697909574891367,-0.062713447297873,-0.0691337967471613,-0.0667181985428638,-0.0720529611856174,-0.069764679232138,-0.0830314699480357,-0.0798808606058284,-0.0793561267865135,-0.0869633087135415,-0.0943142400333754,-0.0882101182929253,-0.0795782116015957,-0.0877945313939624,-0.0858950299334685,-0.1017684364388244,-0.1096974062167343,-0.1011146880935988,-0.1087812476798408,-0.1097591564473779,-0.1086759821491501,-0.1127892266699266,-0.1040207968798926,-0.0964441825828542,-0.1021580778294347,-0.0946972639297965,-0.0961908892547734,-0.0856102947275858,-0.0845989078826967,-0.0652121837526708,-0.06227747334164,-0.0434272528648059,-0.0318581164373543,-0.028764755188613,-0.0225633133718338,-0.02539174401615,-0.0254584999052028,-0.0232629713328759,-0.0058711046307178,-0.0051221558686974,-0.0163578344164672,-0.0085374962051781,0.0046980699768449,0.0040886251425665,0.0045747552297247,0.010654520788522,0.0267095694733951,0.0321055683582039,0.0413430111982568,0.0294565686613698,0.0323321268776871,0.03136402790712,0.0373979207930667,0.0347738136453082,0.0365147624342246,0.0258230596751597,0.0277388829987511,0.0293963429854207,0.0333934968291312,0.0355328103693902,0.0189502037084984,0.0205671961267938,0.0287255418762815,0.0246924979858602,0.0266300913134054,0.0068718979489437,0.0099061525926947,0.0178608062298406,0.0280407361513654,0.0152330570602549,0.0217547005511988,0.0153012580142891,0.0016159305760684,0.014043663124089,0.0152095288205526,0.009137151892943,0.0168795310342753,0.0102783233442385,0.0002208664957124,0.0160610831831815,0.0165593906269903,0.0061913134488076,0.0104692132319273,0.0101049231123574,8.852463962559943e-05,-0.0052424418188489,-0.0162572950520778,-0.0173666575388435,-0.0125236955804201,-0.0164562874403788,-0.0202570962545255,-0.0105001808006325,0.0023905221555033,-0.020156948619216,-0.0110069320041889,-0.0193793375226337,-0.006820417161366,-0.0009590973539056,-0.0080580921940471,-0.0066736942712361,-0.0088308164808793,-0.0127494794891139,-0.0145855276113294,-0.0074676646032943,0.001361236235601,-0.0123524949989363,-0.0155281840808962,-0.0155869093300471,-0.0228221872660113,-0.0350887536386249,-0.0201267423891746,-0.018057561726503,-0.0163794809492568,-0.0223846318761275,-0.0206474023657129,-0.0132590323319974,-0.012713230605895,-0.01457327195315,-0.0171360534383047,-0.0132626701494717,-0.0174491310854672,-0.0261120920096349,-0.0159616657334266,-0.0122465748617279,0.0013325678999938,-0.0039318444040064,-0.0232059033306471,-0.0128833711065653,-0.0039410109340648,-0.0157086034951121,-0.001480056292404,-0.0054108751966147,-0.0036683088286791,0.0115488273822554,0.0242920736035835,0.0311121286393312
1.1491724614004648,1.178203820996807,1.0838046353799062,0.8402505910863908,0.4867213230716811,0.1774569615041138,-0.0432096472211452,-0.1554547398048066,-0.1734030793450308,-0.1502383208911766,-0.094419669304661,-0.0712181285812982,-0.0730433089795515,-0.0778111574473065,-0.0864304552830376,-0.0666297627272123,-0.06947958458875,-0.0576186794599251,-0.0624634187711218,-0.0683077587771309,-0.0638523146242398,-0.0790453521575218,-0.0849997594678627,-0.0721557681393389,-0.0740411102266924,-0.0634457246398853,-0.0750590666314966,-0.076633401045292,-0.0768975190422261,-0.0918221775375211,-0.0929683050087327,-0.0800561865243074,-0.0858147615987841,-0.0735770539042254,-0.0747972325044937,-0.0783610849390417,-0.0818266176709846,-0.0832598678211384,-0.0822640657284319,-0.0848235497250623,-0.0675174066356316,-0.0567490350386553,-0.0631829715466788,-0.0663493308703395,-0.074617020685527,-0.0759162296712046,-0.0741371745610807,-0.0602876378546796,-0.0672203580835806,-0.0626796587838578,-0.0819777302194331,-0.0773206468375858,-0.0797126769374816,-0.0821685583448491,-0.0715835747199355,-0.0724784979333604,-0.0884205838420748,-0.0890259913828731,-0.0901295033760094,-0.0870998990758241,-0.0985916366506684,-0.0926130981266804,-0.0840466037641593,-0.0757255088478067,-0.0813040338855399,-0.0765428079526821,-0.0927637029002483,-0.0795795240883771,-0.0848499299128467,-0.0822198966433783,-0.0784195088295899,-0.0773485975350541,-0.0712760208345551,-0.0828808676705499,-0.0865872457925934,-0.0685646485651724,-0.0708075127787477,-0.0700379036590251,-0.076886924174617,-0.0805256480216354,-0.0889252217018992,-0.0898918188876636,-0.0925529554529892,-0.0783166725036214,-0.0752840521993336,-0.0911159679401174,-0.095793874620104,-0.1062105297591829,-0.0983050378980733,-0.0953030819029488,-0.0944104559127251,-0.0903251433534873,-0.0965423266143276,-0.1124290935378001,-0.1135858046356122,-0.1053269056421232,-0.1114579046506639,-0.1102215859968292,-0.1066446946583623,-0.1035167182331114,-0.0943031476870421,-0.0995778817558808,-0.0956154583712425,-0.0921464990550281,-0.0872136411099997,-0.0745674850368883,-0.0758939597286159,-0.074947777421214,-0.0838729860521932,-0.0853350993952666,-0.0888485596941956,-0.0656915986253122,-0.0479029893890402,-0.0271692538536515,-0.0190536330257083,-0.032681771684039,-0.0160182402053573,-0.0068841859298757,0.000572036212886,0.0149129278683831,0.0179986993302869,0.0121464330384309,0.0174066488619594,0.0119721528965716,0.0149793498878787,0.0231861321049922,0.0292648996804321,0.0383840194541481,0.0370342578048738,0.0309944855321118,0.0198569232490002,0.033364134642275,0.03755354476976,0.0339329248304575,0.0323645284235137,0.0402121664084864,0.0393109673873375,0.0292612907831094,0.0286564445059858,0.0274250970640183,0.0272816360672637,0.0295673485576779,0.0379589964891828,0.0290117060273853,0.0255474715283634,0.0245408465128104,0.0161131198444582,0.0239509592905885,0.0363446791955137,0.0370021036493136,0.020463063534231,0.0123287305082689,0.024243976662058,0.0182337133142512,0.0303526548131204,0.0245130747285331,0.0327468642632736,0.0222344502406229,0.0177479363843728,-0.0076653620137546,0.0002261052627548,0.008373160084409,0.0095225761528983,0.0187452706969968,0.017414766987564,0.006340128194073,0.0102673964001859,-0.0009838556520583,0.0034784960732245,-9.901521129726824e-05,-0.001946569386181,0.0005408281644386,-0.000399881157443,2.927628256972841e-06,-0.0149463748068089,-0.0158648927751709,-0.0063429695902488,0.0052296055404854,0.0081878037839432,-0.000445677547297,-0.0180267086351986,-0.0132893065490181,-0.0167354439331346,-0.0146467009295612,-0.0130529380290991,-0.0025133914064158,-0.0083519513342966,-0.0155424690868733,-0.0232064006385833,-0.0246024228044498,-0.0182573376613032,-0.0095477787331974,-0.0110728803010997,-0.015903436399609,-0.0248455888921956,-0.0202165850573281,-0.0226640161851302,-0.0098359576327825,0.0012790968061645,-0.0043169171776664,-0.0054785139197277,-0.0164863797410554,-0.0074756195549214,-0.0135165842028324,-0.0138350576969157,-0.0124520767164786,-0.0046848140087531,-0.007624725817365,-0.0135501115969215,-0.0075140742624488,-0.0116269532666193,-0.0022250137945776,-0.0032605999023565,0.0022922544885757,0.0096798222607557,0.0115311531925234,0.0251913979530539
1.112456625925195,1.2200499029038432,1.1843268465832786,0.9656091959399768,0.6076134127030783,0.2387331480382592,-0.0416465255581491,-0.1328997844152855,-0.1489547186340927,-0.1042175458707881,-0.0588200340169732,-0.0432038231903292,-0.0476617613654631,-0.0622932451753124,-0.0722229051112132,-0.0726310155287331,-0.0634674018453764,-0.0742315011154977,-0.0842418733110891,-0.0682808517141007,-0.0819742699155185,-0.0763963687463819,-0.0771355902270501,-0.0736754673790344,-0.0697483177005389,-0.0694234844381337,-0.0879536683682528,-0.0765766440416066,-0.0714290819008257,-0.067562154340652,-0.0739487691476203,-0.0694377153422047,-0.0687452757981902,-0.0675965642584107,-0.0769735954943671,-0.0722456291058541,-0.0579766536637686,-0.0734766009220525,-0.0634590981101539,-0.0731696431337395,-0.0629731099257277,-0.0679376979581312,-0.0678671006323844,-0.0676683885900088,-0.0725562538035242,-0.0778106469190699,-0.0833621013986526,-0.0687291428033721,-0.0634662821842602,-0.0626848317775686,-0.0670541191148227,-0.0671958996414524,-0.0630448425973661,-0.0638480081270262,-0.0638611099885046,-0.0680760037797951,-0.0722424722617581,-0.0721385840784892,-0.0778102896111915,-0.0685478286046125,-0.0836230255700394,-0.0680296567858626,-0.0774616165125084,-0.0775543542816155,-0.0731916667967862,-0.0786239414227789,-0.0732922278334955,-0.0624851300077998,-0.0720943724808012,-0.0776718213270077,-0.0687640656926348,-0.059275411687746,-0.073566426591739,-0.0721880665936555,-0.0614461446994717,-0.0571476026981339,-0.0587486750108868,-0.0697937783441188,-0.0742804974879421,-0.0726424792407708,-0.0763730274090375,-0.0766256094835602,-0.0831350232173804,-0.0744972620431205,-0.0745191985658846,-0.068314475006088,-0.0671026149604716,-0.0719693632101423,-0.0728542243563319,-0.068744567190689,-0.0687962400031876,-0.0631738420781249,-0.0677532382240236,-0.0630655495727516,-0.063672323248123,-0.0736819909070662,-0.0728506909381736,-0.0720163865418735,-0.0622812680080202,-0.0737302770565166,-0.0650927638935446,-0.0698773506842149,-0.077955185829061,-0.0709467268278469,-0.0658343361193242,-0.06301221364194,-0.0606972796424775,-0.0564332440115859,-0.0443883093507707,-0.0362628994762331,-0.0348424064411674,-0.0264597425717232,-0.0347309492348836,-0.0267835607435886,-0.0308600096921259,-0.0228780507653857,-0.0105214352323856,-0.0107647211953989,0.0018317909903056,0.0045335539106859,0.0142432321985425,0.0108568112944108,0.022637810802247,0.0080469188933887,0.0171205175920499,0.0161177034050675,0.0260066808474537,0.0264938108449818,0.0165854855589917,0.0159407986808384,0.0154015827736264,0.0210188568225172,0.0226301170684454,0.0236762660314625,0.0177009675775097,0.0100888940586462,0.0131055492203175,0.0138865032513319,-0.0028063984349629,0.0102556479398577,0.0001424093913792,-0.0034102487320204,0.0025289263645102,0.0015981727553183,0.0048042051463082,0.0144570892277606,0.0114877339854231,-0.0109020254826369,-0.0056097195430919,-0.0085356203805828,-0.0072576463716135,0.0018990809695457,-0.0047785163183219,-0.0049875346054468,0.0018485773492281,-0.0062610764705025,-0.0017856270054027,0.0101965344632777,-0.0024965443591537,0.0031847702927721,-0.0027665271782875,0.0011196308467658,-0.0140562235892697,-0.0186682506798326,-0.0288068528273311,-0.019680406209782,-0.0151414629578071,-0.0140132454548441,-0.0167725405645956,-0.0105442969653277,-0.0120666243286547,-0.0155865657311887,-0.0230503617209941,-0.0218068057618701,-0.0223794156247073,-0.0234518732338201,-0.0237136224748597,-0.0383357002149248,-0.0384802832938799,-0.0445647129387451,-0.0304292311152692,-0.024538004864677,-0.0219814054419606,-0.0299430634384643,-0.0257679087518187,-0.0343856039139173,-0.032831002987434,-0.0377300748921758,-0.0386036862071815,-0.0437360927026493,-0.0374671684082936,-0.0362105332097379,-0.0269243782944193,-0.0246403528864258,-0.0368798063600275,-0.0309329032733971,-0.0318697978425117,-0.0180668346597141,-0.0233003355902023,-0.0179741673318413,-0.0282412372732941,-0.0292299491541406,-0.0345944879249628,-0.0280765984650207,-0.0153701570684608,-0.0139910034471586,-0.0108729738890009,-0.0150070591452351,0.0072122129499427,0.0238019342931885,0.0340460237955747,0.043624100750683,0.0433068924777882,0.0379732193228609,0.0320852742107062,0.0508930629877214,0.0506853836528171
1.1681963126860109,1.233055579041881,1.202421548312012,1.0811059807218344,0.8348133707413173,0.4850221096825461,0.1325256216682648,-0.0939233598802964,-0.1671092897652829,-0.1539629445985243,-0.1133913617445765,-0.0916684693070761,-0.0904979424121278,-0.0951606592470915,-0.0947064486777097,-0.0886599222979479,-0.0829931094906012,-0.0840364765423846,-0.0765022396260517,-0.0830604099080971,-0.0814005506833469,-0.0719072034184492,-0.088010019904727,-0.0883327397532302,-0.0980809104510199,-0.098275993984429,-0.0990035596977363,-0.1089468894726456,-0.0969403041184998,-0.0838176162997332,-0.0822213906679986,-0.0891087882824778,-0.0983450555466132,-0.0961108666566847,-0.0892314977303669,-0.0784454955869123,-0.0732777732886,-0.0782110111966217,-0.0834898690321915,-0.1045485641685415,-0.0908650554058725,-0.1058930709311749,-0.0985617039006749,-0.0998791783568625,-0.0976586317394449,-0.0941151206617258,-0.0984411880122545,-0.0969334605221323,-0.0910315412836392,-0.0907079598571814,-0.0849420454630449,-0.0934825054658447,-0.0876024213011767,-0.0887308767752445,-0.0914010479653091,-0.0980164327912171,-0.1011709109877718,-0.1063961260073663,-0.1073390123679771,-0.1026829920517807,-0.0924897826773929,-0.0976089995480723,-0.0981271814657158,-0.0729048044074209,-0.0809256945981932,-0.0779547984185146,-0.0713907041853348,-0.0880267234976155,-0.0868509226064524,-0.0843742392029108,-0.0776403362118242,-0.0822439276798436,-0.0722953656965717,-0.086973073374992,-0.0816432785981962,-0.0872144532468408,-0.0935669700015093,-0.0840967711778892,-0.0772408898211419,-0.0685192490435874,-0.0807120494469584,-0.0864963675676579,-0.0956040101848703,-0.0994586960987846,-0.0991083534282941,-0.1039844399296402,-0.1028679964266903,-0.0958087985891162,-0.0895729718819116,-0.0958148462965196,-0.0988503661443435,-0.0956743276230984,-0.0986826288284887,-0.1085739555512376,-0.1043082370155532,-0.1046906086963295,-0.0946137474692436,-0.0996919371725497,-0.0999958994615862,-0.0996140912312587,-0.0877320119848544,-0.0800239197917187,-0.0735559703805708,-0.074894894776624,-0.0881960759014249,-0.0854280623201531,-0.0689433724417617,-0.0541463151612945,-0.0295757413950808,-0.033979207011591,-0.0078733731407706,-0.0028106371711393,0.0007654691093731,-0.0004860152544793,0.0006526940556103,0.0093336477373751,0.0078490909401147,0.0129214211035001,0.0190899879486967,0.0247323670780958,0.0292957697468874,0.0290671846353088,0.0305552324256803,0.0233427193474692,0.0350199567798257,0.0186127150432236,0.0300580617052016,0.0178858066410997,0.0149798355509381,0.0154564267159391,0.0099609339654832,0.0145094306823163,0.0243938732345563,0.0192907206505849,0.019172429346623,0.0096954736028226,0.0214309450057279,0.0237952059888096,0.0251023117737512,0.0290540872266498,0.0213092116970503,0.0093704239576914,0.0055225295048879,0.0145769310435706,0.028656871177262,0.0295181211717363,0.0164738150651868,0.0072263081573628,0.0006770117445025,0.0085447670683009,0.0088032534819069,0.012383206108795,0.0066642347539752,0.0126777947633586,0.0141212544815415,0.0041392865238039,-0.0122534376921062,-0.0079415610271351,-0.0260781567816837,-0.0174988264570086,-0.0153549091156485,-0.0169960493500392,0.0037986553345695,0.0061641311748044,-0.0016817129400622,-0.0008228350161935,-0.0010693750149351,-0.0116300616220878,-0.0070222489135544,-0.0022363270305546,-0.0072233032852804,-0.0165853287889859,-0.005022641687344,-0.0030474017746274,-0.0119587331763731,0.0022324264184923,-0.00499513074172,-0.0166805952282365,-0.0209165684393495,-0.0176718574405253,-0.0141398495383551,-0.013046137198109,-0.0202579761219287,-0.023847082178081,-0.0055861597587239,-0.0086844726081271,-0.0043779775076969,-0.0109326548341523,0.0041084154301287,-0.0089514431342651,-0.0072873573693587,-0.0129828110388872,0.0095807777044015,0.0133827390217609,-0.0043886301141749,-0.0050192207185598,0.0075593444044496,0.025609719943467,0.0456601541941463,0.0424892141217304,0.0496704848640302,0.0459081155307396,0.0509022307671698,0.0701898152039571,0.0794415354804954,0.074025410899441,0.0791010164400686,0.0898254540258618,0.1062154977526976,0.1077968075626752,0.1036254097391123,0.1029722326042553,0.0961635800869752,0.0946599328890385,0.0850149796515029,0.0774643460438281,0.0854525728359526
1.09285146325164,1.178599979680815,1.1008091212305129,0.8477411088940686,0.4881363589309962,0.1520208079820043,-0.069594019262461,-0.1556294515874317,-0.1906269269361149,-0.1597915826451821,-0.0986374368348915,-0.0826926585122147,-0.0824072213031972,-0.0780517490789031,-0.0894636739856663,-0.0758793062627085,-0.0712483564140629,-0.0700325097441982,-0.0728714540841084,-0.0713657979729515,-0.0768969368179059,-0.0793624265266396,-0.077002444074897,-0.0776835070167508,-0.0756963922121475,-0.0675145134700663,-0.0657229977348055,-0.0719014978641184,-0.0702401829696093,-0.0681304384256808,-0.07329671866165,-0.0656810457639805,-0.0624766313044254,-0.0762931443775692,-0.0680297528114105,-0.0812373338506646,-0.0734230087336903,-0.0830984221627171,-0.0758412134258106,-0.0686101829966875,-0.0730723633739024,-0.0794107440411511,-0.0764694258392756,-0.0828605144081415,-0.0829610345403655,-0.0820782023476874,-0.0809401398063715,-0.0851649207430461,-0.070102049674173,-0.0658817147196502,-0.077339151631622,-0.0688471832265523,-0.0744563831658693,-0.0685484037652946,-0.0715634932184444,-0.0700018112822043,-0.0703844972863822,-0.0628819814183912,-0.0658699111718692,-0.0670492955036026,-0.0603719379352122,-0.0671161974078028,-0.0550203482876103,-0.0560457003601326,-0.0596455955305873,-0.0631045934666797,-0.0737568309436362,-0.076221792877834,-0.0677301899168495,-0.0612530449980568,-0.0630471733329497,-0.0617024042578123,-0.0644266011782206,-0.0693730428189655,-0.0770139192712677,-0.0645232097205782,-0.0688894188796602,-0.0754422377254158,-0.0729006273914878,-0.0896248898884241,-0.0898392740725692,-0.0788973768123377,-0.0776882498909582,-0.0819507342080317,-0.0820400390071856,-0.08802098555817,-0.094672797984752,-0.0963470564905387,-0.0970772009659372,-0.1162157071085368,-0.0992005471736528,-0.097602738456295,-0.1030608326190577,-0.1058039913180648,-0.1041218764878525,-0.1155253610478049,-0.1138315787271963,-0.1103795227429216,-0.1081386791954529,-0.1042818240155615,-0.1182602007293104,-0.0921273500438933,-0.1029478696604035,-0.100266650931348,-0.0715030628154068,-0.0599204911256933,-0.0469250021628437,-0.0459933598828028,-0.0290626293204225,-0.0190849211430069,-0.0165536949444312,0.0061516794116962,0.0218290939462238,0.0200841240333689,0.0223050197625067,0.0353097884129505,0.0349973318890194,0.036018392652408,0.0323861128674362,0.0282243020491549,0.0430724033549165,0.0368513781246703,0.0348825005155199,0.0379873234604033,0.0422681225165709,0.0433547608729267,0.0456176192358232,0.0522447806709269,0.0465032706124502,0.0383200168184474,0.0347119294093519,0.0383790516528967,0.0304296052165478,0.0442067210984499,0.0364365481419216,0.0449137615987672,0.0504598363875242,0.0363728145564687,0.0407259603678807,0.0337914367303388,0.0278102596351575,0.0393064897066312,0.0369463881651175,0.0225229568560352,0.0093332433487285,0.0194540199233851,0.0072338258145372,0.0051010329809477,0.0157623359206771,0.0188551092825939,0.0108599444574999,0.0036884029474856,-0.0016843016164926,0.0044377948104134,0.00103870107018,0.0021054338715534,0.0069880833487165,0.0055155105767912,-0.0018601257663629,-0.0090114828477692,0.0004088309600048,-0.0030253151265278,0.0046906819661669,0.0013493563910232,0.005144878780641,-0.0136420633644615,-0.0074864367263614,-0.0084621557721181,-0.0057330734092877,0.0034881279997186,0.0005611679758193,-0.0115781803887594,-0.006581272072263,-0.0156914574086085,-0.0158302846501744,-0.0021556540626804,-0.0079048395840029,0.0083186481113223,0.0054714003802215,-0.0042345910909604,-0.0073107660067579,-0.0118262363824976,-0.0087270211195774,-0.0107612333754716,-0.0101850449294002,-0.0072248870343232,-0.0103184501233774,-0.0125508438708725,-0.0079319528954329,-0.0016931138110131,-0.0048100397830602,-0.0034138579797476,-0.0034050149083171,-0.0001170536553491,-0.0079538071260866,-0.0103797802865278,-0.010710893153788,-0.0134556381153928,0.004884666984927,-0.0084198765636027,-0.0102296046504686,0.0002546759253519,-0.0137674191839481,-0.0041356406209153,0.0095439604209409,0.0143030162168324,0.0160890145767723,0.0331339658931012,0.0525321723688704,0.053583695010471,0.0542482999028204,0.0637202602570794,0.0631686416676048,0.0639465543175027,0.0754989455473563,0.0855869123412549,0.08784469579863
1.1518077348962117,1.2568241442863946,1.209969335329832,1.0017638795106736,0.6346369187024018,0.251029666165771,-0.0392856569101345,-0.1798216486575454,-0.1947138197972558,-0.1548381660329747,-0.111405604055757,-0.0838085948253606,-0.0745419425924808,-0.0667722867103423,-0.0819516693955529,-0.0793113206852482,-0.0720623136019876,-0.0987817780344697,-0.0888765624887562,-0.097347914769037,-0.0946965692332801,-0.0871416696967957,-0.0914209931151681,-0.098632997140652,-0.0978518764096755,-0.1061023498393449,-0.1004077232985402,-0.0955378121810241,-0.089876838872338,-0.0880814085761303,-0.0921153113575583,-0.0841272545980525,-0.0984112314015074,-0.096134117052241,-0.0838063567629161,-0.0822811573591776,-0.0769128905960427,-0.0879909072457602,-0.1054545278634616,-0.0981751708020293,-0.0990800640740092,-0.086708046704879,-0.0820079786383759,-0.0883423947719429,-0.0940179181478624,-0.094177318003272,-0.1000155697176291,-0.0965539316536424,-0.0969299462736566,-0.0844097166762699,-0.0800133018766134,-0.0874976136483881,-0.0899936917595073,-0.0913679871040781,-0.0813000976347502,-0.0797556256144657,-0.0719985523621869,-0.0841574076321663,-0.0781861334555598,-0.0904697085762129,-0.0950572308988262,-0.098559881401209,-0.0875770183081811,-0.0769239292346903,-0.0705610963256636,-0.0787571294449538,-0.083509262114223,-0.0813038232888252,-0.0806338772080863,-0.0774766100477494,-0.0739930169980263,-0.0719779729443544,-0.072167700592133,-0.0843066663139969,-0.087335935102771,-0.0795670983888118,-0.0843011034210396,-0.0760339660823858,-0.076392803999576,-0.0785586323293562,-0.0700079475937664,-0.0851756478075089,-0.09027404346097,-0.08097512682087,-0.0860594123485471,-0.0888712365159401,-0.0849655223793714,-0.0875970566847411,-0.0848138164352979,-0.0858022870829394,-0.0955651057088566,-0.0790668792861694,-0.0813211713301173,-0.0733043570821063,-0.0721197924721359,-0.0694235239690833,-0.0892973264898661,-0.0830306907459803,-0.0818498778162778,-0.0705768116779186,-0.063644356574387,-0.0568481982281306,-0.0522272950187652,-0.055705235415655,-0.0450840727876384,-0.0411784323851347,-0.0367199123838738,-0.004325029515117,-5.27064354798399e-05,-0.0031519979591028,0.003321449689476,-0.0084640252998777,0.0078328497993398,0.0118491801821743,0.026363650049907,0.0183886502783407,0.0162195560221455,0.0210591294147559,0.01665152979412,0.0266993696957885,0.0268207243714348,0.0386154145483627,0.0419929715305897,0.0291955795286097,0.0322580978584897,0.0266657902868802,0.0270634037910189,0.0384515955898933,0.0310649176998662,0.0291324847917086,0.0354787989543602,0.033207884118166,0.0331461126015738,0.0292113735825916,0.0254781842117435,0.0421625845214997,0.0394969515297944,0.031275074126091,0.0304040842418909,0.0313820586674521,0.0169446582688802,0.0264091258042319,0.0365967901011952,0.0342431621690226,0.0380404102872356,0.0291457613580362,0.0252163886913045,0.0087941973860101,0.0259092849810881,0.0154823625003745,0.0298180506484864,0.0161151869419106,0.0183279412533944,0.0031853916123702,-0.0006309540266492,2.6472370649312576e-05,0.0102563961136232,0.0016270547451613,0.0094785905517889,0.0015105284323775,-0.0101656528445043,-0.0053790534446439,-0.0048424298387277,-0.0036210432136141,-0.001248914657128,0.0017482505278183,0.0032018779245881,-0.0089811529485446,-0.0141214250690412,-0.0082191719080783,-0.0119856644968023,-0.0051205579969995,-0.0075675105335258,-0.0008054958413157,-0.006995995895617,-0.0213892830044108,-0.0308958156003432,-0.0210989234299221,-0.0054681123881785,-0.0077024837902743,-0.0192751646094957,-0.0187432576547839,-0.0229556512728828,-0.0291228339639519,-0.0264537153012496,-0.0115448862526,-0.0124170492394525,-0.0117082809457543,-0.0199647660160566,-0.0200771257384306,-0.0234394682447604,-0.0123496637769575,-0.0021098909771934,-0.0011564262201388,-0.0037821244020604,0.0030967888159181,-0.0033463588195754,-0.0082213799670335,-0.0025767143928675,-0.0065647690491378,0.0004836924677769,0.0133099907863349,0.0148245398110232,0.0127864762921749,0.012682158622231,0.0084684172252478,0.0195556070972476,0.0263724787839486,0.0389652562308235,0.0457294280597943,0.0544192237524708,0.044851420664601,0.0552698093476029,0.0701580824841851,0.0809317330327918,0.08869361880986,0.0918935424520718
1.1470721441721026,1.1573551592054825,0.9867456430060464,0.631963812957939,0.229431268540709,-0.0622985337055013,-0.1767989802084876,-0.1609562404428063,-0.1070698926104873,-0.0644930654054887,-0.0599298791164431,-0.0613407745828652,-0.0661120638135418,-0.0645108580937034,-0.0843704159593705,-0.0723582524331991,-0.0662045672569445,-0.0764516421861371,-0.0613427864535835,-0.0646487016102562,-0.0778386322996909,-0.0737553083055286,-0.0880216048981918,-0.0773123214213153,-0.0620073477299535,-0.061047305131843,-0.0539625545733283,-0.0523536842651848,-0.068625771641074,-0.0680087326558325,-0.0672556971062877,-0.0570832188959305,-0.0714838641792414,-0.0595748063480505,-0.0775345835336947,-0.0579426993952528,-0.0668155212943722,-0.0765771313189126,-0.0777150983470306,-0.0681201905342673,-0.0708930581667513,-0.0723138510072732,-0.0762415969501407,-0.0750590061117796,-0.0763584854320118,-0.0643495175258238,-0.055295155229289,-0.0467930093397582,-0.0512283045386531,-0.0591928892102309,-0.0688771967659263,-0.0720588288814364,-0.0612902957986295,-0.0618381935497368,-0.061793309467542,-0.0649658466510798,-0.0679631361465243,-0.0787415261886036,-0.077974597634211,-0.0773572714140603,-0.0722699474245727,-0.0765884401157229,-0.0596866405876757,-0.0680015014660162,-0.0689316295693334,-0.0729393099837181,-0.0721130367515747,-0.0673195002265358,-0.0773276308191973,-0.0557832512262813,-0.0535313743057554,-0.07327894320513,-0.07157715383809,-0.066362163759094,-0.0531575284563849,-0.0443472510340543,-0.0373912163860395,-0.0383417003375128,-0.0564492855400341,-0.0597826872260809,-0.0663347705210892,-0.055098226808095,-0.0467010666822937,-0.0432315140051825,-0.0471015373547091,-0.059403060626955,-0.0588521239639004,-0.0673551263199796,-0.0571486700176239,-0.0480557123859219,-0.057959452180067,-0.0508015400111775,-0.0734731289598544,-0.0691169861306151,-0.0584095347695019,-0.0479579605967919,-0.0530747779806644,-0.0425874965962293,-0.0607778274255598,-0.0589632509745801,-0.0595311374070581,-0.0481500439356041,-0.0472364850412243,-0.0428216938999932,-0.0284536703992667,-0.0072751318665009,0.0052440212929492,0.0012688070599125,0.0036505745871187,-0.0011370872474382,0.0013300362298763,0.0042518324284018,0.0059230150408083,0.0205672638285439,0.028470831327615,0.025740151215381,0.0288957215420958,0.034209229620093,0.0418341811428206,0.040312171232844,0.027193202239454,0.0257505833780499,0.0266005322233533,0.0276796133081978,0.032173536708306,0.0358490032458154,0.0360917864027848,0.0437601315247425,0.0215474697729548,0.0310440169517079,0.0216010532694839,0.0218020891641452,0.0214845989411282,0.0268684271866833,0.0236963331785659,0.025703488257492,0.0204999144195591,0.0172455000411468,0.0132355306704404,0.0072857472448281,0.0110571258597764,0.016901084523623,0.0197285962763747,0.0115810227424675,0.0196949495870616,0.0149215196567469,0.0066197718821502,0.0186055752531609,0.0199881312768411,0.0203014896287769,0.0043369939244659,-0.0077048547138268,-0.0048527083077222,0.0044460774930668,0.0012165034044325,0.0047195514249896,-0.0075234718056064,-0.0129582563473256,-0.0167449453855106,-0.0161434958003554,-0.0124806372897512,-0.0042849640027825,-0.0138351064335121,-0.0005106333536874,-0.0171412298013124,-0.0224884118348508,-0.032165074053713,-0.0273081187171206,-0.0428397790875168,-0.0374759933725963,-0.0405132141527939,-0.0382469262120632,-0.038101918431589,-0.0410514985518191,-0.0300218405779459,-0.0263146728600064,-0.0330788824129114,-0.0125147316661127,-0.0243581289313471,-0.0216822212470177,-0.0228387690767071,-0.0375867770680736,-0.0466429881612625,-0.0455891896046264,-0.0344960365934617,-0.0384974613656782,-0.0382865234126537,-0.0495894267054737,-0.0520224708392586,-0.048769506258339,-0.0279052053772516,-0.0243929584296965,-0.0207077851575399,-0.0250421069078658,-0.0384026264173611,-0.0332972328581552,-0.0305473193687815,-0.0228997532818588,-0.0222275061794723,-0.0081493707223706,-0.0290935787054869,-0.0342577439697257,-0.034236573130763,-0.0298210967429183,-0.0306014560930978,-0.0201939998275508,-0.0179865604334257,-0.00039705020391,0.0050663520177617,0.0223336744251749,0.0233427929579031,0.0267299959589113,0.0295137680837329,0.0498666128649214,0.0333497100127751,0.0367887649143734,0.0413086156583279
1.2045516772322278,1.2085898146947802,1.0981989061471638,0.8987627627711386,0.6341156648887234,0.3732551227943124,0.1469302219360883,-0.0228964137184378,-0.1303286225742302,-0.1820594679097756,-0.1811721460771295,-0.1590651289754074,-0.1135655423973101,-0.085461035614234,-0.0873746387609872,-0.0913509600209037,-0.0824212413746307,-0.0741485438025246,-0.0801962547422367,-0.075256888905401,-0.0947030570897483,-0.0837774251177078,-0.0874421991459975,-0.0809712491460348,-0.0702975941719921,-0.0863286556872981,-0.0787409422741757,-0.0706732004496426,-0.0650709907376301,-0.0817006338226298,-0.0778440371148863,-0.0766533604093136,-0.0743640371060984,-0.0788984831686791,-0.0813706943541095,-0.0843886129647932,-0.0842604992594418,-0.0750298242952937,-0.0850650958058623,-0.0891717083023469,-0.0737752619150005,-0.0899971003144629,-0.0818940422441407,-0.077072746487287,-0.0693005033851117,-0.0703535178094338,-0.0738215009537138,-0.0766502070872925,-0.0817801873278831,-0.0895338106455246,-0.081841432691248,-0.0854052838098405,-0.0705740081013093,-0.0666438002859322,-0.0578204974716072,-0.0736943046922774,-0.0739794002816139,-0.0882572003758843,-0.0763671556735903,-0.0790732474095527,-0.0779780512034779,-0.0842877521982815,-0.0774037906509251,-0.0748959030000965,-0.0743284730023813,-0.0705400814253628,-0.0712038338495753,-0.0798239072297439,-0.0776994881737145,-0.0825645108608634,-0.0803085352385425,-0.0884416721663851,-0.0732913646491517,-0.0839396645138774,-0.0787787489407398,-0.0826826597438033,-0.0922269251442622,-0.0836677666204208,-0.0610115763382576,-0.0615793047630491,-0.0638073233822693,-0.0594033170585435,-0.0572859757820138,-0.0699089475073892,-0.0654676508103655,-0.0640180136140738,-0.066874860857901,-0.070283361123646,-0.064706692586383,-0.0750647854317847,-0.0911834264290347,-0.0927383831584379,-0.1039130793794838,-0.0985886052783315,-0.0913245147560169,-0.1032479622862095,-0.0966403228865985,-0.1081247858842841,-0.1219346960917905,-0.1200748374848791,-0.1046471871222193,-0.1054898433167654,-0.0756700504363733,-0.0790999768686589,-0.0821757142634399,-0.0724139727008967,-0.0654303083073379,-0.0736381176460495,-0.0684507510093518,-0.0540530942299203,-0.03884050391258,-0.0276488523671423,-0.0121068643920032,-0.0186246679163688,-0.0012962399594273,-0.0122956130202382,0.0052679785673335,-9.326773813531491e-05,0.0025524053523412,0.0052862559429308,0.0145156245297707,0.0202433881634264,0.0266818888463666,0.0281554288841567,0.0393017364721097,0.0447059680922279,0.0438539626852438,0.0267843541444812,0.0246909421927405,0.0244142876835375,0.0168394894346563,0.0356320211883522,0.0528486279405844,0.0413308459982833,0.0468786997668778,0.0430159696178532,0.0381755459952486,0.0426154429481098,0.0379062572143827,0.029688575217155,0.0414206729066855,0.0207982343392706,0.0225071941285962,0.0092374289610622,0.0194518855407094,0.0238224270846722,0.0289698929306065,0.0101809534406773,0.0208484742286608,0.0093867603127106,0.0114921861174464,0.0150161238260852,0.0171755631617348,0.021842763346919,0.0149679876363278,0.0082103620712469,0.007446953140418,0.0075377676427124,0.0181285334999148,0.0242146220748535,0.0207475300155418,0.0019576685875442,-0.0084108101727638,-0.0008027862296184,-0.003817106905666,0.0051086754031718,0.0024643667545506,0.0068829927284243,-0.0001964277731599,-0.0115762524545718,-0.0165768897431842,-0.0112144992417453,-0.0014646265611255,0.0031388096455014,-0.0061290564976328,-0.0090925073135059,-0.0074992964160054,-0.0084808536188205,-0.0070482915575087,-0.0103955978163099,-0.0201890075459373,-0.0209121391570466,-0.0209100798498681,-0.0147177466842449,-0.0238738828797771,-0.025163160693974,-0.0231965524565953,-0.0151929161317574,0.0063929668971312,0.0059125969068281,-0.0055199431496047,-0.0066267634423579,-0.0271749290318756,-0.0226293763440895,-0.0180050439104528,-0.0075530915799751,-0.0058127426827203,-0.0137649077031745,-0.0234395612072611,-0.0309464734493859,-0.0248530270476874,-0.0118982926705928,-0.00484500097344,9.021163176135535e-05,-0.0062004535659022,-0.0022525165423972,-0.0176690569607446,-0.0181041981089512,0.0010926033499179,-0.004284812406791,0.0168413598502186,0.0041894879463336,0.0057393257299268,-0.0005394945566697,0.0056185749538083,0.0221524127848532,0.0372933511659492
